# time luminosity radius
-2.064573914944048738e+01 4.685491187014060006e+35 1.008215485277289990e+06
-1.940299121608040878e+01 4.776358727267379667e+35 1.008216688681239961e+06
-1.803932302691464429e+01 4.888370357393800274e+35 1.008218347073619952e+06
-1.656523026567083434e+01 5.029244049327889849e+35 1.008220663159150048e+06
-1.500245704312328598e+01 5.210523278063700323e+35 1.008223949758909992e+06
-1.338270618856404326e+01 5.452952229882350313e+35 1.008228824016349972e+06
-1.322882094881060766e+01 5.477753690468319681e+35 1.008229314760489971e+06
-1.292258932170079788e+01 5.527567375891010048e+35 1.008230366345730028e+06
-1.231318838374863844e+01 5.638066995652249878e+35 1.008232796820770018e+06
-1.220039875758448034e+01 5.659415365352340160e+35 1.008233261306929984e+06
-1.197594740151907899e+01 5.703059795831849691e+35 1.008234243810410029e+06
-1.152928920295016724e+01 5.798390326985230008e+35 1.008236474167329958e+06
-1.067083320435995120e+01 6.030214924897730159e+35 1.008242227347259992e+06
-1.006556263845777721e+01 6.230322223366010131e+35 1.008247562463170034e+06
-9.600089047176879831e+00 6.414038114984300230e+35 1.008252846813290031e+06
-9.227584494365146384e+00 6.586919227181999695e+35 1.008258210948379943e+06
-8.922547767106152605e+00 6.752055389949520198e+35 1.008263637098670006e+06
-8.653308840803219937e+00 6.923192310186350222e+35 1.008269668883739971e+06
-8.536625944645493291e+00 7.004811570131619441e+35 1.008272590165350004e+06
-8.463492672362917801e+00 7.057304646792939372e+35 1.008274559703530045e+06
-8.408958759609959088e+00 7.096985221314899752e+35 1.008276113411300001e+06
-8.356762466017244151e+00 7.138693578273529427e+35 1.008277690315420041e+06
-8.253793013485847041e+00 7.224343691825749547e+35 1.008281246318149962e+06
-8.179027135793148773e+00 7.293552394919749684e+35 1.008284120963779977e+06
-8.116100945258949650e+00 7.351571197813950502e+35 1.008286749962899950e+06
-8.076281482437480008e+00 7.391254865091779755e+35 1.008288539798859973e+06
-8.024277853412058903e+00 7.444671526612990187e+35 1.008291121762269991e+06
-7.979638297525525559e+00 7.493151476684870664e+35 1.008293600043550017e+06
-7.975797250383038772e+00 7.498600770883950670e+35 1.008293815143940039e+06
-7.968153566569526447e+00 7.505895788670090133e+35 1.008294261612239992e+06
-7.952942635780345881e+00 7.523090295489080706e+35 1.008295225074440008e+06
-7.951025240257877158e+00 7.525387756875869897e+35 1.008295353365979972e+06
-7.947209623165690573e+00 7.529452432980629611e+35 1.008295626161340042e+06
-7.940413943695602939e+00 7.547061615008540420e+35 1.008296195743849967e+06
-7.935852071041153977e+00 7.545092277783790535e+35 1.008296643441559980e+06
-7.935623946268606232e+00 7.541523519714759704e+35 1.008296757830980001e+06
-7.935617850922426442e+00 7.541528091585769921e+35 1.008296759710230050e+06
-7.935605721180763794e+00 7.541544522343519798e+35 1.008296764349660021e+06
-7.935581582998565864e+00 7.541571237712549542e+35 1.008296774948740029e+06
-7.935533548014063854e+00 7.541624926227370497e+35 1.008296797812010045e+06
-7.935444795282819541e+00 7.541724177130000688e+35 1.008296846893139998e+06
-7.935377158504707040e+00 7.541799645101919268e+35 1.008296906907459954e+06
-7.935347784390614834e+00 7.541832381769390274e+35 1.008296939847699949e+06
-7.935326795930450317e+00 7.541854813934110480e+35 1.008296961827669991e+06
-7.935304029484541388e+00 7.541880164102459425e+35 1.008296984586209990e+06
-7.935280153506028000e+00 7.541906752190349634e+35 1.008297008148159948e+06
-7.935255935557506746e+00 7.541933642522250339e+35 1.008297031958539970e+06
-7.935231970903259935e+00 7.541960149975899611e+35 1.008297054680780042e+06
-7.935206231370102614e+00 7.541988756956110412e+35 1.008297078261999995e+06
-7.935179148898896528e+00 7.542018777467059753e+35 1.008297101044739946e+06
-7.935149458015075652e+00 7.542051833778439980e+35 1.008297123153229943e+06
-7.935123636085336329e+00 7.542080648617849848e+35 1.008297139948840020e+06
-7.935099643917055801e+00 7.542107470276689855e+35 1.008297153255749959e+06
-7.935075687630160246e+00 7.542134351791120679e+35 1.008297164479380008e+06
-7.935050345251511317e+00 7.542162841376420429e+35 1.008297174430210027e+06
-7.935021849087206647e+00 7.542194915428710031e+35 1.008297183691769955e+06
-7.934986863958329195e+00 7.542234336863449658e+35 1.008297193096789997e+06
-7.934938961629086407e+00 7.542288334076950338e+35 1.008297203878720058e+06
-7.934861156158149242e+00 7.542376048958590525e+35 1.008297218949149945e+06
-7.934706323274440365e+00 7.542550610905109896e+35 1.008297246900839964e+06
-7.934398205834440887e+00 7.542897998721180183e+35 1.008297304893060005e+06
-7.933785052126040682e+00 7.543589402840010079e+35 1.008297433311979985e+06
-7.932869315922289388e+00 7.545576391392399834e+35 1.008297606222989969e+06
-7.931336207158892648e+00 7.547406302675320572e+35 1.008297844740509987e+06
-7.929606380308541702e+00 7.548660339452119761e+35 1.008298062483820016e+06
-7.927314732984086731e+00 7.552845062525860567e+35 1.008298309474010020e+06
-7.924238661122217309e+00 7.558788968771039909e+35 1.008298624714110047e+06
-7.919891471196024213e+00 7.561371121222290259e+35 1.008299061985390028e+06
-7.913745079345972044e+00 7.570007891418519316e+35 1.008299685046290047e+06
-7.905013691633939743e+00 7.580288410906620067e+35 1.008300592351870029e+06
-7.892887137364596128e+00 7.600059617155070371e+35 1.008301943984190002e+06
-7.878613509412389249e+00 7.610354210391529899e+35 1.008303672990650055e+06
-7.866364088979025837e+00 7.624901384959109793e+35 1.008305315358840046e+06
-7.855302961030247388e+00 7.643066077675920326e+35 1.008307087481530034e+06
-7.846557825472700642e+00 7.658584982320390180e+35 1.008308610026529990e+06
-7.835563899712724378e+00 7.665507669859570469e+35 1.008310615490030032e+06
-7.820346018517739139e+00 7.680986073775380708e+35 1.008313604181949981e+06
-7.806048486301733647e+00 7.699014328975389662e+35 1.008316592998040025e+06
-7.793265849097224418e+00 7.724004209526870518e+35 1.008319325218479964e+06
-7.780111530435533496e+00 7.733712823802610250e+35 1.008322219992469996e+06
-7.767737001267960295e+00 7.751176264296569916e+35 1.008324963992120000e+06
-7.754819594694708940e+00 7.769697982751179711e+35 1.008327846697199973e+06
-7.740616966253583087e+00 7.789543286112150489e+35 1.008331054174160003e+06
-7.725533880100556416e+00 7.811755928685289757e+35 1.008334464498450048e+06
-7.709958119932707632e+00 7.845485637859790172e+35 1.008337982150419964e+06
-7.693586685516493162e+00 7.872912660913199863e+35 1.008341704893770046e+06
-7.675980609772523167e+00 7.903612806559660109e+35 1.008345849419160048e+06
-7.657944786980806384e+00 7.968465762648100045e+35 1.008350155808169977e+06
-7.638096687380311778e+00 8.095323269244620419e+35 1.008354985484329984e+06
-7.616071870113955811e+00 8.355456187330660478e+35 1.008360508228949970e+06
-7.592590745083725778e+00 8.840381867670140219e+35 1.008366591255660052e+06
-7.567779211753077107e+00 1.140115810999569994e+36 1.008373642788990051e+06
-7.545747662778012455e+00 1.635885749328170111e+36 1.008380117996740039e+06
-7.520538402710371884e+00 1.947878717323759877e+36 1.008387835851710057e+06
-7.495416769710573135e+00 2.401252369854990078e+36 1.008395868390750024e+06
-7.470355651934369234e+00 2.982986140613240057e+36 1.008404294098519953e+06
-7.445348020319215721e+00 3.640900235055609750e+36 1.008413173967920011e+06
-7.420948967494041426e+00 3.981612491939269977e+36 1.008422247037690016e+06
-7.397841979782242561e+00 4.387569875188739846e+36 1.008431233466280042e+06
-7.375942862443480408e+00 5.098295045199549766e+36 1.008440215902109980e+06
-7.355161631599912653e+00 5.445742447072890364e+36 1.008449089756270056e+06
-7.335394398636708502e+00 5.847439871607150197e+36 1.008457874513769988e+06
-7.316458802131819539e+00 6.856659250524429987e+36 1.008466870848409948e+06
-7.298425473603856517e+00 7.235482114307530525e+36 1.008475764399989974e+06
-7.281068099735421129e+00 7.613697256075400579e+36 1.008484639343200019e+06
-7.264428825623326702e+00 7.985004455073900047e+36 1.008493442565439967e+06
-7.248422464734176174e+00 8.348593761918809724e+36 1.008502194930579979e+06
-7.232786283715540776e+00 8.708536200496999429e+36 1.008511021687429980e+06
-7.217399684170231922e+00 9.068689676622960382e+36 1.008519987978450023e+06
-7.202086000790586695e+00 9.433336412195030416e+36 1.008529233996169991e+06
-7.186945302430103766e+00 9.798935583193990397e+36 1.008538686964779976e+06
-7.171870422243955545e+00 1.016871269548299981e+37 1.008548428741379990e+06
-7.156853091921220766e+00 1.057302822353420018e+37 1.008558519008619944e+06
-7.141911984570469940e+00 1.179221490707719986e+37 1.008569428879159968e+06
-7.127750326326349750e+00 1.213474662152650105e+37 1.008580142592670047e+06
-7.114890670349268476e+00 1.244719616736420029e+37 1.008590190482089994e+06
-7.102683257489843527e+00 1.275461005067570098e+37 1.008600019462210010e+06
-7.090734680055902572e+00 1.306418277156610048e+37 1.008609946018349961e+06
-7.079334165846375981e+00 1.336798657350619973e+37 1.008619720490399981e+06
-7.068127711278066272e+00 1.367473512757590080e+37 1.008629635356290033e+06
-7.057113197133730864e+00 1.398246496039919970e+37 1.008639677450540010e+06
-7.046034198981942609e+00 1.430371001590059955e+37 1.008650073942080024e+06
-7.034548928761068964e+00 1.464434286617150046e+37 1.008661160228490015e+06
-7.022272960497502936e+00 1.503368974721360113e+37 1.008673365007319953e+06
-7.010420112535939552e+00 1.542440965585020082e+37 1.008685469626549981e+06
-6.999444746310473420e+00 1.581264904722070036e+37 1.008696958100990043e+06
-6.988896025915892096e+00 1.619036843883300069e+37 1.008708258086399990e+06
-6.978716434452508111e+00 1.656524344429009911e+37 1.008719405116250040e+06
-6.968678552377241431e+00 1.694296992422160056e+37 1.008730632072709966e+06
-6.958900847410404822e+00 1.731969267812510046e+37 1.008741790122849983e+06
-6.949164004836347885e+00 1.770471298722380097e+37 1.008753120454099961e+06
-6.938798046074225567e+00 1.811975999773199954e+37 1.008765428865800030e+06
-6.928505528579989914e+00 1.854039143889210035e+37 1.008777882761919987e+06
-6.918458850846946007e+00 1.895321509765740077e+37 1.008790256634240039e+06
-6.908581491785298567e+00 1.936083954317159984e+37 1.008802636563110049e+06
-6.899027608273172518e+00 1.975496766797370047e+37 1.008814799568130053e+06
-6.889724742268299451e+00 2.013538265715430000e+37 1.008826826438540011e+06
-6.880745349615608575e+00 2.049533110233799955e+37 1.008838608117089956e+06
-6.872014062919333810e+00 2.084351682788910052e+37 1.008850212405030034e+06
-6.863520247086853487e+00 2.118266983862269985e+37 1.008861637525669998e+06
-6.855262573018990224e+00 2.150204206094070083e+37 1.008872868971219985e+06
-6.847260102978907526e+00 2.180562472096379769e+37 1.008883861115350039e+06
-6.839462140880641527e+00 2.209772624105109895e+37 1.008894668321250007e+06
-6.831823663065733854e+00 2.239104158529520167e+37 1.008905345684039989e+06
-6.824325548986962531e+00 2.266083817913310185e+37 1.008915900952329976e+06
-6.816936041581357131e+00 2.291218634331799994e+37 1.008926364939150051e+06
-6.809643781693011988e+00 2.316210729708849951e+37 1.008936743732720031e+06
-6.802411636399483541e+00 2.341020445804039907e+37 1.008947087948770029e+06
-6.795214818368549459e+00 2.365686816881090034e+37 1.008957426544580027e+06
-6.788025745256163646e+00 2.390223632143840232e+37 1.008967796897229971e+06
-6.780824220291833626e+00 2.414620257838320012e+37 1.008978223942280049e+06
-6.773572457590489648e+00 2.439052970526129962e+37 1.008988759310389985e+06
-6.766268757710349746e+00 2.463525497072810122e+37 1.008999403847150039e+06
-6.758888266766007291e+00 2.489676685553450112e+37 1.009010193902460043e+06
-6.751417775263689691e+00 2.516474602110799895e+37 1.009021149159720051e+06
-6.743805274811165873e+00 2.542487991255390024e+37 1.009032355904500000e+06
-6.735977195286977803e+00 2.569522862849970185e+37 1.009043909123759950e+06
-6.728040705726016313e+00 2.596826455142219813e+37 1.009055641619149945e+06
-6.719843746202968759e+00 2.625230561297259879e+37 1.009067780983070028e+06
-6.711368499323725700e+00 2.654934690062520092e+37 1.009080344698389992e+06
-6.702596530143637210e+00 2.689136705816700214e+37 1.009093365918889991e+06
-6.693443962703895522e+00 2.724350693559800213e+37 1.009106962430589949e+06
-6.683878006253507920e+00 2.760470282483629850e+37 1.009121171416099998e+06
-6.673800419568578945e+00 2.798874420509020042e+37 1.009136128881030018e+06
-6.663148919411469251e+00 2.842167476921289872e+37 1.009151924390570028e+06
-6.651920586486085085e+00 2.896423203697170232e+37 1.009168548554609995e+06
-6.639821971224591834e+00 2.946773258643619870e+37 1.009186418143899995e+06
-6.626763054184266366e+00 3.006794282541379815e+37 1.009205646965860040e+06
-6.612718855765706394e+00 3.090784377581839783e+37 1.009226244422449963e+06
-6.597413530551420990e+00 3.167067945749430155e+37 1.009248586351159960e+06
-6.581107023368531372e+00 3.286464478197519947e+37 1.009272289378809975e+06
-6.565192318506888114e+00 3.390871284626489839e+37 1.009295286215619999e+06
-6.549651882778562140e+00 3.544248238363910148e+37 1.009317602239880012e+06
-6.534540555428975495e+00 3.588074036479530183e+37 1.009339148258759989e+06
-6.520302706408983795e+00 3.717907159383199942e+37 1.009359314257220016e+06
-6.501640072143345606e+00 3.800681007895729859e+37 1.009385512659020023e+06
-6.482881202464341186e+00 3.909000600440140166e+37 1.009411548935330007e+06
-6.459309007532283431e+00 4.051489774558069908e+37 1.009443879663830041e+06
-6.436259889647772070e+00 4.192758830680260195e+37 1.009475013674580026e+06
-6.412261270535964286e+00 4.342500405176850192e+37 1.009506980415140046e+06
-6.387289186903217342e+00 4.500273505713289948e+37 1.009539737346410053e+06
-6.360810183283319930e+00 4.669580750116559553e+37 1.009573915560830035e+06
-6.332186188934429083e+00 4.854480494549389900e+37 1.009610244179870002e+06
-6.304614940818282776e+00 5.034371810675860217e+37 1.009644618751349975e+06
-6.276313029095035745e+00 5.219458543380149678e+37 1.009679303068710025e+06
-6.247358473770873388e+00 5.408502021618189667e+37 1.009714155093539972e+06
-6.218281913312239340e+00 5.597309119394740135e+37 1.009748540683859959e+06
-6.188165903022309067e+00 5.790691850176790229e+37 1.009783487542459974e+06
-6.157203538859903347e+00 5.986556442938099628e+37 1.009818725174000021e+06
-6.124371694691944867e+00 6.190020172340810459e+37 1.009855300022940035e+06
-6.091456821304745972e+00 6.389307867118039793e+37 1.009891156492089969e+06
-6.057940016115026083e+00 6.586579412848589728e+37 1.009926820354270050e+06
-6.023284959166630870e+00 6.783965241193630381e+37 1.009962772478729952e+06
-5.986932356830948265e+00 6.983570923101369688e+37 1.009999468077769969e+06
-5.948222739069024101e+00 7.187282603752059714e+37 1.010037368297129986e+06
-5.906330995545431506e+00 7.397297686398970134e+37 1.010077002476010006e+06
-5.860165768393926555e+00 7.615653033444950107e+37 1.010119002078110003e+06
-5.808209368675306905e+00 7.845220918994250244e+37 1.010164151590880007e+06
-5.748268010749598034e+00 8.089104396309770001e+37 1.010213468784110039e+06
-5.680678135817288421e+00 8.339174384391459954e+37 1.010265592694530031e+06
-5.619011133931053337e+00 8.549646091931610896e+37 1.010310253117369954e+06
-5.559736855338996975e+00 8.733650740575950767e+37 1.010350702928739949e+06
-5.501162964661489241e+00 8.899463491103410192e+37 1.010388322714110021e+06
-5.442128021924872883e+00 9.051448616613340718e+37 1.010423983974119998e+06
-5.381703976545395562e+00 9.192655770411910224e+37 1.010458221623510006e+06
-5.318991576074040495e+00 9.325321833935320931e+37 1.010491465856940020e+06
-5.253122266636637505e+00 9.451102918501939835e+37 1.010524024143790011e+06
-5.183049165774718858e+00 9.571673245182629535e+37 1.010556195103410049e+06
-5.107517745036602719e+00 9.688632257281590644e+37 1.010588279661459965e+06
-5.024903582168917637e+00 9.803930439982190167e+37 1.010620603871479980e+06
-4.933021749991894467e+00 9.920165415543970536e+37 1.010653595474809990e+06
-4.828853678995074006e+00 1.004119677401600041e+38 1.010687851517449948e+06
-4.708064307604217902e+00 1.017307211846039929e+38 1.010724300066660042e+06
-4.572122299789043609e+00 1.031911654997370057e+38 1.010762431127820048e+06
-4.447145113215810852e+00 1.046109471558290078e+38 1.010796055684500025e+06
-4.326606791695667198e+00 1.060242393693390063e+38 1.010828000536400010e+06
-4.207428287409129553e+00 1.074945307922369924e+38 1.010859647065210040e+06
-4.087512271154992050e+00 1.090670739082819999e+38 1.010892060114199994e+06
-3.965241084963054163e+00 1.107723204687019965e+38 1.010926093226189958e+06
-3.839244846436486114e+00 1.126520485430630054e+38 1.010962579035419971e+06
-3.708222510234918445e+00 1.147291974065150009e+38 1.011002289286819985e+06
-3.570708265851862961e+00 1.170407710999020068e+38 1.011046134736220003e+06
-3.442865364126191707e+00 1.193449043463179932e+38 1.011088921919879969e+06
-3.330089671828318387e+00 1.214837426655609927e+38 1.011128304172710050e+06
-3.229056061045412207e+00 1.234511169276669979e+38 1.011164910650440026e+06
-3.136884606079547666e+00 1.252806087624930069e+38 1.011199287951680017e+06
-3.050488415632571559e+00 1.270218589331889993e+38 1.011232392231389997e+06
-2.968195432047650684e+00 1.286961779975570068e+38 1.011264631815930014e+06
-2.889075800329010235e+00 1.303194404857469920e+38 1.011296202229539980e+06
-2.819581129577272804e+00 1.317716838008620037e+38 1.011324316239219974e+06
-2.758246336958109168e+00 1.330558007358990072e+38 1.011349436381530017e+06
-2.704283325234428048e+00 1.341871407171780068e+38 1.011371748768970021e+06
-2.656531309035926824e+00 1.351873796011210076e+38 1.011391646097250050e+06
-2.614651514057186432e+00 1.360642657595149945e+38 1.011409197838620050e+06
-2.577816333210648736e+00 1.368337001426019945e+38 1.011424709768850007e+06
-2.545572226099466207e+00 1.375062135505229967e+38 1.011438337762670009e+06
-2.517316980756731937e+00 1.380939645832099917e+38 1.011450315328189987e+06
-2.492524277866323246e+00 1.386082738449419925e+38 1.011460849411700037e+06
-2.470660608032630989e+00 1.390603080672239925e+38 1.011470155910419999e+06
-2.451105055381049169e+00 1.394626512203549982e+38 1.011478492284880020e+06
-2.433243279207090382e+00 1.398279255263830005e+38 1.011486114853670006e+06
-2.416189770723576657e+00 1.401731968894969991e+38 1.011493397986470023e+06
-2.397954656775254989e+00 1.405347002680379965e+38 1.011501185482889996e+06
-2.365847258679423248e+00 1.411283721967169987e+38 1.011514917866540025e+06
-2.309785985467897262e+00 1.421456485772510020e+38 1.011538757000599988e+06
-2.248776496075151954e+00 1.432978116976099985e+38 1.011564425757079967e+06
-2.177880445728078485e+00 1.445886094318060046e+38 1.011594068827130017e+06
-2.093821779275458539e+00 1.460598809883689999e+38 1.011628818157959962e+06
-1.993125877295824466e+00 1.477361318366580085e+38 1.011669696334620006e+06
-1.870037630444130627e+00 1.496475960065740083e+38 1.011718245526229963e+06
-1.714436593923892360e+00 1.518354413171349990e+38 1.011776807312260033e+06
-1.515493592385610100e+00 1.542782773658669947e+38 1.011846304752600030e+06
-1.318287312122265575e+00 1.565544506376289966e+38 1.011909833809530013e+06
-1.135701165450882399e+00 1.584402804560299954e+38 1.011963678363639978e+06
-9.714384975086431950e-01 1.599268429366660062e+38 1.012007901414760039e+06
-8.234115965242381208e-01 1.610713957971969955e+38 1.012044067127350019e+06
-6.898565359588246793e-01 1.619438730062100054e+38 1.012073511475999956e+06
-5.692139321763534099e-01 1.625984067964680033e+38 1.012097365374139976e+06
-4.600792216333502438e-01 1.630789086877579913e+38 1.012116581307430053e+06
-3.617075399706664030e-01 1.634241151010359933e+38 1.012131932098579942e+06
-2.727937371928419452e-01 1.636632289311500057e+38 1.012144160267550033e+06
-1.929370579746318981e-01 1.638232205836620089e+38 1.012153785988940042e+06
