# time luminosity radius
-2.072478966228663921e+01 4.857928363385610188e+35 1.008210260654269950e+06
-1.960973814435419627e+01 4.948542175291850303e+35 1.008211545841239975e+06
-1.863556271133711562e+01 5.034942578831659685e+35 1.008212819689980010e+06
-1.808861215526121669e+01 5.086394744656360270e+35 1.008213583684519981e+06
-1.766087765558040701e+01 5.128191391637179953e+35 1.008214221248010057e+06
-1.715905828360700980e+01 5.179481395789599669e+35 1.008215029298210051e+06
-1.658513343372032978e+01 5.241515269684949769e+35 1.008216041484029964e+06
-1.593811300600646064e+01 5.316146025667039830e+35 1.008217311202649958e+06
-1.521790104577667080e+01 5.405901324193319673e+35 1.008218913524869946e+06
-1.442742796920356341e+01 5.514610560803950244e+35 1.008220951370180002e+06
-1.357171943807043135e+01 5.647934666689850052e+35 1.008223566639099969e+06
-1.266055539096123539e+01 5.814242394207319792e+35 1.008227005608650041e+06
-1.171452360038529150e+01 6.025776811671080327e+35 1.008231659230910009e+06
-1.076757525757420808e+01 6.301093381072649635e+35 1.008238168523360044e+06
-1.007761722611030564e+01 6.555289685654079829e+35 1.008244683095569955e+06
-9.569723180029541254e+00 6.786476715345669925e+35 1.008251034194299951e+06
-9.171676091005792841e+00 7.004889107626550003e+35 1.008257479386589956e+06
-8.851756382384337485e+00 7.217685542924279685e+35 1.008263965488089947e+06
-8.729571652162121609e+00 7.304932686726419499e+35 1.008266722973849974e+06
-8.626945832656929269e+00 7.381672209672060140e+35 1.008269237676879973e+06
-8.477157162909861654e+00 7.509716644896389740e+35 1.008273462263140013e+06
-8.345594616548623890e+00 7.634031512547660024e+35 1.008277735549089964e+06
-8.249399396969238296e+00 7.734315235431049901e+35 1.008281219151420053e+06
-8.167543887451756746e+00 7.824697866213209626e+35 1.008284537136949948e+06
-8.161077771073905751e+00 7.832044616556079369e+35 1.008284801425970043e+06
-8.148210199462482706e+00 7.846783098630070640e+35 1.008285346135900007e+06
-8.122603731957497075e+00 7.876506912697469277e+35 1.008286479603630025e+06
-8.117508044932037592e+00 7.882890722455859461e+35 1.008286707807700033e+06
-8.107367627730127424e+00 7.899787853816930713e+35 1.008287176653060014e+06
-8.087188197503564879e+00 7.918616853434290673e+35 1.008288210754420026e+06
-8.071592622873140499e+00 7.937996549506590251e+35 1.008289173129530041e+06
-8.067705295863561332e+00 7.946274238922280100e+35 1.008289419926239992e+06
-8.067674817604711279e+00 7.942278348172860002e+35 1.008289427177640027e+06
-8.067645547300344333e+00 7.942313936809649711e+35 1.008289437963759992e+06
-8.067622794624185190e+00 7.942341572377229613e+35 1.008289448194999946e+06
-8.067599314061226323e+00 7.942369941973650443e+35 1.008289459229380009e+06
-8.067570860206615180e+00 7.942404519518399368e+35 1.008289472919299966e+06
-8.067539478361140937e+00 7.942442738456970398e+35 1.008289489301790018e+06
-8.067511926026782021e+00 7.942476250275620148e+35 1.008289505161260022e+06
-8.067487341439118609e+00 7.942506025295649479e+35 1.008289519889089977e+06
-8.067463390703778714e+00 7.942535099228130298e+35 1.008289534880809952e+06
-8.067440647399052978e+00 7.942562639700719785e+35 1.008289549335310003e+06
-8.067416954785585403e+00 7.942591345614949648e+35 1.008289564346289961e+06
-8.067390957294264808e+00 7.942622900329040629e+35 1.008289580928129959e+06
-8.067362593603320420e+00 7.942657266679450149e+35 1.008289598564850050e+06
-8.067326609278097749e+00 7.942700926924100169e+35 1.008289619561749976e+06
-8.067287726240465418e+00 7.942748177350619568e+35 1.008289640305169974e+06
-8.067256547277793288e+00 7.942786093965199447e+35 1.008289655263560009e+06
-8.067228524188976735e+00 7.942820202519310184e+35 1.008289666918319999e+06
-8.067200747260358185e+00 7.942854095227360159e+35 1.008289676752830041e+06
-8.067171121161663905e+00 7.942890302611830166e+35 1.008289685584909981e+06
-8.067137872072635219e+00 7.942930974257439315e+35 1.008289693791560014e+06
-8.067097903782268986e+00 7.942979909211210135e+35 1.008289701939900056e+06
-8.067045503965346143e+00 7.943044090773209846e+35 1.008289710602349951e+06
-8.066963263467187062e+00 7.943144866542410088e+35 1.008289721765649971e+06
-8.066799604886909947e+00 7.943345449409979750e+35 1.008289741381819942e+06
-8.066473924322053790e+00 7.943744681141450374e+35 1.008289781158730038e+06
-8.065825820027384907e+00 7.944539420061029434e+35 1.008289869104129961e+06
-8.064734145707916468e+00 7.946016003155149921e+35 1.008290000173239969e+06
-8.063310521771200001e+00 7.955331682670820543e+35 1.008290148173099966e+06
-8.061750205961288884e+00 7.950794657590840115e+35 1.008290286925439956e+06
-8.059889360418310389e+00 7.954520593331790689e+35 1.008290438318929984e+06
-8.057465213409159333e+00 7.956310594721500270e+35 1.008290620053139981e+06
-8.054364224895834923e+00 7.959864568291140500e+35 1.008290841861070017e+06
-8.050176293501863256e+00 7.965131597641669816e+35 1.008291133735929965e+06
-8.044317275693174452e+00 7.972228528430809766e+35 1.008291536098169978e+06
-8.036127509287325665e+00 7.984335974915519614e+35 1.008292095910310047e+06
-8.024366894678678364e+00 7.999354460979550537e+35 1.008292910421209992e+06
-8.007337627117522061e+00 8.019882419232409659e+35 1.008294118893139996e+06
-7.982104514376260340e+00 8.054096318657870135e+35 1.008296022341159987e+06
-7.961507664876990020e+00 8.080874172234930146e+35 1.008297638117079972e+06
-7.943581309373257682e+00 8.106574421180650221e+35 1.008299120999029954e+06
-7.928890816663624719e+00 8.127092518014179875e+35 1.008300387580999988e+06
-7.915757820883300155e+00 8.146189439055800109e+35 1.008301572622240055e+06
-7.903149447811301798e+00 8.165009436096820248e+35 1.008302771464859950e+06
-7.889351251709740609e+00 8.185033138164659311e+35 1.008304209271169966e+06
-7.870321186346700415e+00 8.216329365191019431e+35 1.008306386309630005e+06
-7.851114076736848801e+00 8.245971257649440304e+35 1.008308795712889987e+06
-7.831192280194954947e+00 8.272590156188390294e+35 1.008311554255179944e+06
-7.812587787077063695e+00 8.303159909322769967e+35 1.008314377407849999e+06
-7.795427544566337019e+00 8.337192381276879541e+35 1.008317253290829947e+06
-7.779048412368865684e+00 8.364763997605420394e+35 1.008320184417690034e+06
-7.763041695812717080e+00 8.384082388770780313e+35 1.008323228851399967e+06
-7.748561275744577870e+00 8.419153386599810372e+35 1.008326134766540024e+06
-7.734777111356379464e+00 8.445763878988410095e+35 1.008329186712839990e+06
-7.720938997372286394e+00 8.465194268988869954e+35 1.008332529201030033e+06
-7.708023849671008065e+00 8.491148961722979401e+35 1.008335679632729967e+06
-7.693177167064277455e+00 8.519627831568719373e+35 1.008339452866300009e+06
-7.678340744460001588e+00 8.554638968747420706e+35 1.008343239392479998e+06
-7.662749366398202255e+00 8.600233167266779340e+35 1.008347227934179944e+06
-7.646055605699075386e+00 8.696332334149430658e+35 1.008351597749229986e+06
-7.628070518141612411e+00 8.881603262345219352e+35 1.008356361994310049e+06
-7.608597247948637232e+00 9.276126604180919316e+35 1.008361625779989990e+06
-7.587637756252661347e+00 1.024868793543559933e+36 1.008367534098410048e+06
-7.565108258364489302e+00 1.226928314019889995e+36 1.008374079630870023e+06
-7.541377264278708026e+00 1.508611510118669955e+36 1.008381192496830015e+06
-7.516536598443053663e+00 2.917633068674930093e+36 1.008389214031349984e+06
-7.491904296737629920e+00 3.153837523437430172e+36 1.008397445250730030e+06
-7.467294757661875337e+00 3.639256326863110063e+36 1.008406014650559984e+06
-7.442619174107676372e+00 3.991719265019070076e+36 1.008414946409360040e+06
-7.418074294138932601e+00 4.582494580754740198e+36 1.008424264802880003e+06
-7.394019360392121598e+00 4.993073581383240096e+36 1.008433778560769977e+06
-7.370651180332060903e+00 5.422466299178859428e+36 1.008443426472389954e+06
-7.347743033693404868e+00 6.069422180465049704e+36 1.008453377159400028e+06
-7.325592295528622344e+00 6.508637932817770507e+36 1.008463407857239945e+06
-7.304106135154142976e+00 6.959542773920330059e+36 1.008473568373539951e+06
-7.283349679812090471e+00 7.651143275564410449e+36 1.008483944787370041e+06
-7.263210452772909775e+00 8.106963719149200199e+36 1.008494454572189949e+06
-7.243529603380011395e+00 8.555855544264400419e+36 1.008505191140839946e+06
-7.224279226182261482e+00 9.004258174493409751e+36 1.008516174806540017e+06
-7.205276488530216739e+00 9.755546429641749502e+36 1.008527714523770032e+06
-7.186946875706780702e+00 1.022457993234399990e+37 1.008539223148819990e+06
-7.169447198917623609e+00 1.067736200517200097e+37 1.008550667587850010e+06
-7.153269221773371100e+00 1.110922967987019887e+37 1.008561669873769977e+06
-7.137939496344188228e+00 1.152076827128350029e+37 1.008572507092859945e+06
-7.123436224792385474e+00 1.191719625513180062e+37 1.008583149662620039e+06
-7.109791120747104287e+00 1.229757105459179914e+37 1.008593516124940012e+06
-7.096381733805174008e+00 1.267602041081830045e+37 1.008604052686730050e+06
-7.083354971895460039e+00 1.305317489899269904e+37 1.008614621479650028e+06
-7.070450550847453997e+00 1.343547299085350061e+37 1.008625425352180027e+06
-7.057312836579512805e+00 1.383453442902310057e+37 1.008636772704020026e+06
-7.043637167837005109e+00 1.425391430215760044e+37 1.008648967817920027e+06
-7.030262640590080991e+00 1.471104266624409931e+37 1.008661363995249965e+06
-7.017414113419363275e+00 1.516570668788560080e+37 1.008673613373619970e+06
-7.005552435846766457e+00 1.559549835320729913e+37 1.008685203692990006e+06
-6.993559749244013801e+00 1.603230375171379930e+37 1.008697215389800025e+06
-6.982299545721616596e+00 1.645032576697089987e+37 1.008708746428809944e+06
-6.971351889515062794e+00 1.685966696914490030e+37 1.008720196639009984e+06
-6.960552905424265191e+00 1.726693302345339948e+37 1.008731721430059988e+06
-6.949773551226826385e+00 1.767653146635809912e+37 1.008743451351769967e+06
-6.938896362291416153e+00 1.809178353721809987e+37 1.008755514646359952e+06
-6.927818284311797470e+00 1.851532008637349950e+37 1.008768032636589953e+06
-6.916557324235327542e+00 1.894484761897099952e+37 1.008780993712419993e+06
-6.904908459342550486e+00 1.938631280276289900e+37 1.008794650650609983e+06
-6.893553826870629564e+00 1.981156202199080110e+37 1.008808184333069948e+06
-6.882518745027482510e+00 2.021755935232269991e+37 1.008821544823960052e+06
-6.871809667063644156e+00 2.060405315888379994e+37 1.008834694936100044e+06
-6.861481121275573969e+00 2.096854219137210091e+37 1.008847538813940017e+06
-6.851433434465434402e+00 2.131541107244110038e+37 1.008860177565700025e+06
-6.841624858177965507e+00 2.164689979897650196e+37 1.008872664256689954e+06
-6.831975220120511949e+00 2.196203231198869970e+37 1.008885079855259974e+06
-6.822385906416457146e+00 2.226705727479149850e+37 1.008897540504910052e+06
-6.812811361305648461e+00 2.256458451570579876e+37 1.008910097258950002e+06
-6.803363235812867060e+00 2.285051420804429995e+37 1.008922593537079985e+06
-6.793856331001734361e+00 2.313369928527389907e+37 1.008935259063389967e+06
-6.784245856862980872e+00 2.341497879422190050e+37 1.008948142908129958e+06
-6.774560966849094257e+00 2.369338294001690195e+37 1.008961200050810003e+06
-6.764781229256186634e+00 2.398128822179850139e+37 1.008974453921469976e+06
-6.754758102237246931e+00 2.414578775492809961e+37 1.008988085836870014e+06
-6.744348568579880521e+00 2.438883004398510162e+37 1.009002285347300000e+06
-6.733540030953008682e+00 2.467877607527309900e+37 1.009017063053010032e+06
-6.722555293410550803e+00 2.499091098213500173e+37 1.009032107093799976e+06
-6.711584856733679771e+00 2.532668304112239912e+37 1.009047157322239946e+06
-6.700638592941686511e+00 2.556037413618279974e+37 1.009062187298360048e+06
-6.689652865228708833e+00 2.590118726205669931e+37 1.009077276280840044e+06
-6.678526344941928983e+00 2.628688359614190142e+37 1.009092556744239992e+06
-6.667168369953287765e+00 2.672708371510260220e+37 1.009108165942489984e+06
-6.655705373792443424e+00 2.703767469137509967e+37 1.009123904698080034e+06
-6.643941424525110051e+00 2.751999855434680162e+37 1.009140039019769989e+06
-6.632059040857711807e+00 2.795354929481429833e+37 1.009156306792540010e+06
-6.620418117905501276e+00 2.929925131094469984e+37 1.009172205235869973e+06
-6.608919199876254424e+00 2.923692063547470152e+37 1.009187874951079953e+06
-6.597615903883706778e+00 3.088840865722999935e+37 1.009203217362010037e+06
-6.586411105847219005e+00 3.082269254198549946e+37 1.009218381355409976e+06
-6.575366398232290521e+00 3.242624785509830018e+37 1.009233287850770052e+06
-6.564383684162748978e+00 3.192251372701029767e+37 1.009248059059099993e+06
-6.553720739466371015e+00 3.350722548912420191e+37 1.009262349230060005e+06
-6.543175953614991158e+00 3.405026768094989980e+37 1.009276432266140007e+06
-6.530864245723932981e+00 3.476256866546130112e+37 1.009292795621020021e+06
-6.518551434070104733e+00 3.543099516029669849e+37 1.009309035776559962e+06
-6.502659692690940574e+00 3.629449140358180014e+37 1.009329859046009951e+06
-6.486936809611506760e+00 3.718220532557599861e+37 1.009350266225829953e+06
-6.467904969031224027e+00 3.829335018798599822e+37 1.009374761388220009e+06
-6.448084798554191366e+00 3.946668966523350058e+37 1.009400001215400058e+06
-6.428449952451046556e+00 4.063751805453209765e+37 1.009424744909769972e+06
-6.408898906927788630e+00 4.181483341589159894e+37 1.009449128108439967e+06
-6.389424142194911838e+00 4.300047931231829584e+37 1.009473165847340017e+06
-6.370011743303621188e+00 4.419382330081940455e+37 1.009496882095979992e+06
-6.350685574754606932e+00 4.539216491576119656e+37 1.009520244984940044e+06
-6.331432555016363040e+00 4.659471607822650127e+37 1.009543284043160034e+06
-6.312192307435907423e+00 4.780344800255680133e+37 1.009566071566659957e+06
-6.292966825189068913e+00 4.901578646408690037e+37 1.009588605867629987e+06
-6.273696140066022053e+00 5.023267120692629998e+37 1.009610952715310035e+06
-6.254389503825223073e+00 5.145103565848540268e+37 1.009633102523050038e+06
-6.234987201605690643e+00 5.267219528388710348e+37 1.009655120205890038e+06
-6.215559990931069478e+00 5.388936624672460101e+37 1.009676915809269994e+06
-6.196109205891843885e+00 5.510020732457149934e+37 1.009698486292049987e+06
-6.176585098786745220e+00 5.630612201589980192e+37 1.009719886063760030e+06
-6.156995532073779032e+00 5.750518621619909626e+37 1.009741097392410040e+06
-6.137289765727473423e+00 5.869860846418689776e+37 1.009762168443329982e+06
-6.117479869193630293e+00 5.988416639516169869e+37 1.009783076836760039e+06
-6.097513041051570326e+00 6.106343618242059653e+37 1.009803872700009961e+06
-6.077403790754033253e+00 6.223457941703069710e+37 1.009824532642300008e+06
-6.057096252246992663e+00 6.339892336427280000e+37 1.009845106606189976e+06
-6.036605807166779414e+00 6.455410790774009936e+37 1.009865559862580034e+06
-6.015991002233931795e+00 6.569550688753949771e+37 1.009885826181209995e+06
-5.995204504841240123e+00 6.682451640532239984e+37 1.009905946402310045e+06
-5.974253625987330452e+00 6.793999958443129966e+37 1.009925898379059974e+06
-5.953087356203468516e+00 6.904270516502240457e+37 1.009945718507449958e+06
-5.931714551872573793e+00 7.013087254427630114e+37 1.009965386453220039e+06
-5.910079357854556292e+00 7.120578812494349873e+37 1.009984941533450037e+06
-5.888190589117584750e+00 7.226637894181730257e+37 1.010004360565930023e+06
-5.865986350574530661e+00 7.331388647429349854e+37 1.010023683547219960e+06
-5.843517843692097813e+00 7.434575135735319894e+37 1.010042851109319949e+06
-5.820819013082655147e+00 7.535780175755270292e+37 1.010061821921920055e+06
-5.797832740790909156e+00 7.635242762507039973e+37 1.010080631672829972e+06
-5.774557656201068312e+00 7.732823158209649723e+37 1.010099267058619997e+06
-5.750929229601752013e+00 7.828733067046729797e+37 1.010117763385299942e+06
-5.726943808607757092e+00 7.922822519828129834e+37 1.010136107525989995e+06
-5.702538996149087325e+00 8.015294348809279941e+37 1.010154327448630007e+06
-5.677812142937909812e+00 8.105561741866220111e+37 1.010172334823120036e+06
-5.652744621300371364e+00 8.193681574176999750e+37 1.010190130273269955e+06
-5.627263719739858061e+00 8.279764077452600421e+37 1.010207748069170048e+06
-5.601350468990858644e+00 8.363924135050099836e+37 1.010225186638719984e+06
-5.574930849950760603e+00 8.446142275567419641e+37 1.010242472851329949e+06
-5.548121574567630887e+00 8.526113478305700016e+37 1.010259514042419964e+06
-5.520884362456854433e+00 8.603800586235660788e+37 1.010276321395960054e+06
-5.493126270303037018e+00 8.679475310841270600e+37 1.010292934196030023e+06
-5.464807847747579217e+00 8.753147451353350527e+37 1.010309357451739954e+06
-5.436046533694025129e+00 8.824524568827550471e+37 1.010325506234540022e+06
-5.406750753143569455e+00 8.893744760369719233e+37 1.010341418946400052e+06
-5.376864201709395275e+00 8.960873908033239617e+37 1.010357108394069946e+06
-5.346416495012817904e+00 9.025888221857920203e+37 1.010372543776270002e+06
-5.315401470870710909e+00 9.088772808947980146e+37 1.010387714176240028e+06
-5.283740346581907943e+00 9.149695952256089534e+37 1.010402644835449988e+06
-5.251461484469473362e+00 9.208611960604399555e+37 1.010417308025100036e+06
-5.218546479503856972e+00 9.265606331471839156e+37 1.010431701256830012e+06
-5.184893404104514048e+00 9.320854100221910308e+37 1.010445856632750016e+06
-5.150619455700507388e+00 9.374270611012980827e+37 1.010459716543450020e+06
-5.115590838307980448e+00 9.426085103915149787e+37 1.010473327261049999e+06
-5.084547255741199479e+00 9.470977132987840795e+37 1.010484959980400046e+06
-5.057890173775376752e+00 9.508321333257480787e+37 1.010494654651409946e+06
-5.034867322829086334e+00 9.539561280574610673e+37 1.010502818630689988e+06
-5.014744969783350825e+00 9.566121580378269794e+37 1.010509798704389948e+06
-4.996635097428224981e+00 9.589373723573050826e+37 1.010515956869040034e+06
-4.978946351562626660e+00 9.611282820812510756e+37 1.010521850207059993e+06
-4.953806478821206838e+00 9.639850903290219532e+37 1.010529979021409992e+06
-4.919411009585019201e+00 9.677793899264920246e+37 1.010540682118520024e+06
-4.880124774586874992e+00 9.720643191085700638e+37 1.010552390210379963e+06
-4.840005640260642394e+00 9.763676087419870647e+37 1.010563858881309978e+06
-4.798845398792764172e+00 9.806321529047389358e+37 1.010575170911750058e+06
-4.756724977050907910e+00 9.848722583878000802e+37 1.010586313227950013e+06
-4.713572561391629279e+00 9.891104985036100430e+37 1.010597317001700052e+06
-4.669404724903870374e+00 9.933577830645620671e+37 1.010608194936529966e+06
-4.624219769058981910e+00 9.976365508507369630e+37 1.010618967622729950e+06
-4.577899393188999966e+00 1.001974602081379957e+38 1.010629685430029989e+06
-4.530531041469657794e+00 1.006390955497089960e+38 1.010640354734119959e+06
-4.482062491122633219e+00 1.010915776764739914e+38 1.010651017735230038e+06
-4.432409288041526452e+00 1.015580835290199980e+38 1.010661726458379999e+06
-4.381609415111597627e+00 1.020412108454969999e+38 1.010672510139110032e+06
-4.329654771281639114e+00 1.025438045858210091e+38 1.010683412074240041e+06
-4.276477646199055016e+00 1.030694033127419963e+38 1.010694491556750028e+06
-4.222014271217631176e+00 1.036215467351619955e+38 1.010705809997110046e+06
-4.166178788291290402e+00 1.042045375895170023e+38 1.010717435583870043e+06
-4.109163071669172496e+00 1.048199406496950036e+38 1.010729380810079980e+06
-4.050805776991182938e+00 1.054715989206280079e+38 1.010741736439659959e+06
-3.991025769413681701e+00 1.061635854369519964e+38 1.010754576945250039e+06
-3.929827755579026416e+00 1.068988957591500045e+38 1.010767960265659960e+06
-3.867287632223451510e+00 1.076793741653779928e+38 1.010781928508309997e+06
-3.803282010514521971e+00 1.085084873792750058e+38 1.010796568730160012e+06
-3.737757143011549488e+00 1.093893343965029960e+38 1.010811951388829970e+06
-3.670831483264919370e+00 1.103225495004450001e+38 1.010828103252170025e+06
