# time luminosity radius
-2.457907351473113522e+01 4.431418060369930049e+35 1.008199979862260050e+06
-1.739648231054889038e+01 5.033023759439810316e+35 1.008209017639779951e+06
-1.701903913216665387e+01 5.070905561584479897e+35 1.008209581822820008e+06
-1.626792720711091533e+01 5.144840742887730174e+35 1.008210872164260014e+06
-1.477321447629947215e+01 5.328552239456259880e+35 1.008214266075749998e+06
-1.452592444547917694e+01 5.361214637073569819e+35 1.008214862791219959e+06
-1.403381728415843099e+01 5.429509787827389930e+35 1.008216173948740005e+06
-1.305452403315575793e+01 5.590208479877050270e+35 1.008219398639529943e+06
-1.129263321001781151e+01 6.042526117762720344e+35 1.008229543765150011e+06
-1.045113781990949064e+01 6.327279559223490025e+35 1.008236592848710017e+06
-9.912378375302068889e+00 6.550470696050890251e+35 1.008242549891329953e+06
-9.573965588060673326e+00 6.712090095794800250e+35 1.008247096742660040e+06
-9.333977199683431536e+00 6.840598034212450299e+35 1.008250808599160053e+06
-9.143699875799939036e+00 6.951623058730800054e+35 1.008254118715289980e+06
-8.981568271701689810e+00 7.056230774421360107e+35 1.008257236545469961e+06
-8.822860821383073926e+00 7.167315713036370159e+35 1.008260623565379996e+06
-8.637812594592105597e+00 7.315552038676590152e+35 1.008265165499610011e+06
-8.466471726947929710e+00 7.472661275315459723e+35 1.008270085962980054e+06
-8.341442709905095398e+00 7.599182989458099484e+35 1.008274207115800004e+06
-8.247067215153947473e+00 7.703372920986640387e+35 1.008277709543669946e+06
-8.171441131038591266e+00 7.793069079587780061e+35 1.008280841569500044e+06
-8.108386612089816481e+00 7.871553678464230365e+35 1.008283725925710052e+06
-8.056898724054917693e+00 7.939932218046860454e+35 1.008286312282860046e+06
-8.021380446618422866e+00 7.992511295634509324e+35 1.008288232573930058e+06
-7.994622464000713080e+00 8.026895987861960497e+35 1.008289765469479957e+06
-7.973326824081595987e+00 8.057197960095819716e+35 1.008291050230899942e+06
-7.955361754575278610e+00 8.087016243433700256e+35 1.008292184814629960e+06
-7.938743996957782656e+00 8.109155628793810041e+35 1.008293283185170032e+06
-7.921156166587024927e+00 8.134980335777449980e+35 1.008294509268659982e+06
-7.896072803239803761e+00 8.172079888481250321e+35 1.008296415210210020e+06
-7.865732372447382659e+00 8.221571239864609595e+35 1.008298965871360037e+06
-7.845204743265639991e+00 8.256172748957650605e+35 1.008300856446409947e+06
-7.821902165014762431e+00 8.294736310652079327e+35 1.008303259555289987e+06
-7.798880974296480417e+00 8.334724209740439480e+35 1.008306043000650010e+06
-7.778728478529956192e+00 8.376887498614839499e+35 1.008309009359259973e+06
-7.759635472495574504e+00 8.408357736588880617e+35 1.008312114098769962e+06
-7.741761128942016512e+00 8.440276167854169265e+35 1.008315260028189979e+06
-7.729484477313235402e+00 8.461840375604920092e+35 1.008317504489140003e+06
-7.715086458541918546e+00 8.490627939663310034e+35 1.008320264833120047e+06
-7.699864603928290308e+00 8.518332003844819490e+35 1.008323263834450045e+06
-7.685140171495731920e+00 8.550713887187130348e+35 1.008326227081210003e+06
-7.670178935804869980e+00 8.578808685551990155e+35 1.008329280362510006e+06
-7.654164891224354506e+00 8.616674463515990025e+35 1.008332604126709979e+06
-7.636659965151920915e+00 8.655882169558269826e+35 1.008336320467700018e+06
-7.618610439589247108e+00 8.708134956766250295e+35 1.008340218149970053e+06
-7.599502876400947571e+00 8.766312189347039753e+35 1.008344422358189942e+06
-7.579801436571869999e+00 8.873014285986359582e+35 1.008349016919699963e+06
-7.559268633543979377e+00 8.930623136625160412e+35 1.008354146037130035e+06
-7.538539125933311880e+00 9.656393072223579300e+35 1.008359939018049976e+06
-7.515976848604623228e+00 1.107958070550010007e+36 1.008366352268659975e+06
-7.492898472642991692e+00 1.432345376519259923e+36 1.008373084290929954e+06
-7.469098103407304734e+00 1.778992097838139886e+36 1.008380210537340026e+06
-7.444601483002770692e+00 2.540739960387590114e+36 1.008387848888579989e+06
-7.419544894946739078e+00 3.358942160179380094e+36 1.008396076832760009e+06
-7.394291844044346362e+00 3.625164764256540037e+36 1.008404794883750030e+06
-7.369313870731275529e+00 4.318382193480970279e+36 1.008413915838939953e+06
-7.345068401074968278e+00 5.279113409279789999e+36 1.008423343055170029e+06
-7.322253275837283581e+00 5.520232880253740480e+36 1.008432552684030030e+06
-7.299543978238943964e+00 5.842769028378950241e+36 1.008442085887879948e+06
-7.276273798721376806e+00 6.214547378667200173e+36 1.008452207435789984e+06
-7.252913697098847479e+00 6.715190876247460399e+36 1.008462916537669953e+06
-7.230112127785105258e+00 7.918882222527890129e+36 1.008474289792619995e+06
-7.208008826710283756e+00 8.239727388312719943e+36 1.008485881760139950e+06
-7.186556029773782939e+00 8.615523274424890240e+36 1.008497709087649942e+06
-7.166095129097811878e+00 8.999709372879920402e+36 1.008509470571639948e+06
-7.147445777722168714e+00 9.371788619735600410e+36 1.008520665411010035e+06
-7.130216267658397555e+00 9.810636036344889580e+36 1.008531558299659984e+06
-7.114409026689827442e+00 1.017593850563160017e+37 1.008541965333170025e+06
-7.099655464233364910e+00 1.052617812605649959e+37 1.008552037075330038e+06
-7.085847015667241067e+00 1.086665306214560086e+37 1.008561781033550040e+06
-7.072572697186842561e+00 1.120583964549440032e+37 1.008571465240119956e+06
-7.059825929522048682e+00 1.154474164447850018e+37 1.008581080467229942e+06
-7.047324358660262078e+00 1.188742778727840097e+37 1.008590821324459976e+06
-7.035003782890271395e+00 1.223644764955890106e+37 1.008600725068200030e+06
-7.022613891400396824e+00 1.259905946377650043e+37 1.008610990765430033e+06
-7.009878757526166737e+00 1.298315274797080102e+37 1.008621865242830012e+06
-6.996519662556238472e+00 1.339819541630999905e+37 1.008633626914690016e+06
-6.984148000890854746e+00 1.379741227890170060e+37 1.008644818237380008e+06
-6.972240756847895682e+00 1.418833815645390096e+37 1.008655866615650011e+06
-6.960726071498356760e+00 1.458145804331679943e+37 1.008666811310700024e+06
-6.949532253551296890e+00 1.496921711355109899e+37 1.008677697253459948e+06
-6.938396903977263719e+00 1.536067414544530032e+37 1.008688771305160015e+06
-6.927367600146681070e+00 1.575222422051699961e+37 1.008699978369629942e+06
-6.916321316093672067e+00 1.614611535440420051e+37 1.008711444251660025e+06
-6.905145600147079676e+00 1.654593738408789961e+37 1.008723291700090049e+06
-6.893713218451011926e+00 1.695598923665749945e+37 1.008735668398709968e+06
-6.881922890257555991e+00 1.737820204501689983e+37 1.008748702326540020e+06
-6.869706985133234411e+00 1.781398323118620086e+37 1.008762487740130047e+06
-6.856829604890663177e+00 1.826857627689069910e+37 1.008777325274109957e+06
-6.844331871252506971e+00 1.869997729669180086e+37 1.008791995598340058e+06
-6.832027793687302619e+00 1.911819360848060009e+37 1.008806704828409944e+06
-6.819972862838767469e+00 1.951991419948830066e+37 1.008821354241920053e+06
-6.808194262557663023e+00 1.990399266784800039e+37 1.008835899834010052e+06
-6.796793237270321697e+00 2.026604504384609950e+37 1.008850175770340022e+06
-6.785671753925271332e+00 2.061208248125740077e+37 1.008864274766030023e+06
-6.774751686491072178e+00 2.094386636836920073e+37 1.008878271567550022e+06
-6.763952032371889800e+00 2.126427527240659930e+37 1.008892255952119944e+06
-6.753268416156060994e+00 2.155704523917600113e+37 1.008906203383030021e+06
-6.742503056651912630e+00 2.184913241636469923e+37 1.008920355547919986e+06
-6.731828684394713491e+00 2.213690625604749851e+37 1.008934468561640009e+06
-6.720931673655286431e+00 2.240271068656280153e+37 1.008948951389780035e+06
-6.710086097242310643e+00 2.269130714487450144e+37 1.008963430904729990e+06
-6.699347750691231340e+00 2.299380549656769782e+37 1.008977826403539977e+06
-6.688660040847025812e+00 2.334628629799079997e+37 1.008992209314609994e+06
-6.677971255965530872e+00 2.372764158487240131e+37 1.009006624502509949e+06
-6.667228618869557977e+00 2.409129264754219780e+37 1.009021124726949958e+06
-6.656368600146379322e+00 2.445112052581520157e+37 1.009035785109280027e+06
-6.645314492692705244e+00 2.482494058618759866e+37 1.009050700318319956e+06
-6.633989142836071551e+00 2.526261714473889986e+37 1.009065968541590031e+06
-6.622698050923645496e+00 2.576066169199600095e+37 1.009081162070360035e+06
-6.611561702506151050e+00 2.622542336453129957e+37 1.009096121181039955e+06
-6.600517076789401472e+00 2.670620265521720209e+37 1.009110923677109997e+06
-6.589525247109122574e+00 2.729861888326810027e+37 1.009125619454829954e+06
-6.578563385410234332e+00 2.782387867063380029e+37 1.009140237719179946e+06
-6.567602325812913477e+00 2.854977243939409973e+37 1.009154813202230027e+06
-6.556756480771582574e+00 2.915380016067679919e+37 1.009169188126079971e+06
-6.546660402556881309e+00 2.983220303408920014e+37 1.009182538782629999e+06
-6.536281416018027812e+00 3.068067346820290136e+37 1.009196224827509956e+06
-6.524575144692789763e+00 3.127435982008919860e+37 1.009211624561329954e+06
-6.513145353295840323e+00 3.201574893046189878e+37 1.009226596181079978e+06
-6.501474844175390899e+00 3.237378784957240013e+37 1.009241811299980036e+06
-6.490245005115866661e+00 3.292610025213570062e+37 1.009256371478089946e+06
-6.479001120605971664e+00 3.350605102687109981e+37 1.009270864473149995e+06
-6.467054615786764771e+00 3.414530975320810060e+37 1.009286178474950022e+06
-6.453558427921961993e+00 3.488659748685010057e+37 1.009303371390440036e+06
-6.438667630602139980e+00 3.574460408770020024e+37 1.009322205643079942e+06
-6.420341202756389976e+00 3.677866914291839933e+37 1.009345186573390034e+06
-6.399340604490134865e+00 3.797732316987190091e+37 1.009371231946059968e+06
-6.378535290830768645e+00 3.916797857688539920e+37 1.009396738186649978e+06
-6.357778602861799300e+00 4.037727795102429767e+37 1.009421912513289950e+06
-6.337062065606005490e+00 4.160564033556670087e+37 1.009446772388949990e+06
-6.316315188712906092e+00 4.285319379230789979e+37 1.009471406342640053e+06
-6.295536852558143437e+00 4.411590887859360377e+37 1.009495824555339990e+06
-6.274819549056701362e+00 4.538489579956929540e+37 1.009519917106979992e+06
-6.254097649594768882e+00 4.666042505976959841e+37 1.009543765588139999e+06
-6.233367868408095092e+00 4.793947239918509559e+37 1.009567370618600049e+06
-6.212566611007787287e+00 4.922280154178780118e+37 1.009590802966490039e+06
-6.191698492912109941e+00 5.050737153763320412e+37 1.009614050454630051e+06
-6.170714925508946180e+00 5.179311358461820217e+37 1.009637160347089986e+06
-6.149697651620954275e+00 5.307283031761429848e+37 1.009660036231379956e+06
-6.128640259616076946e+00 5.434485217908289660e+37 1.009682676953859976e+06
-6.107485602842643857e+00 5.561047341408279571e+37 1.009705137865709956e+06
-6.086237690411508083e+00 5.686759323154709797e+37 1.009727405156509951e+06
-6.064836859528440982e+00 5.811787162391909832e+37 1.009749528232129989e+06
-6.043290703208185732e+00 5.935944526614640049e+37 1.009771488521069987e+06
-6.021573296689894050e+00 6.059228202691979836e+37 1.009793299121659948e+06
-5.999742271029390395e+00 6.181149762721259908e+37 1.009814892508359975e+06
-5.977793540514539927e+00 6.301578006231790387e+37 1.009836262902479968e+06
-5.955669297138229012e+00 6.420706410156839605e+37 1.009857454839800019e+06
-5.933371727296616882e+00 6.538405360073200199e+37 1.009878455461740028e+06
-5.910837961651850492e+00 6.654818448747690345e+37 1.009899308381370036e+06
-5.888070814718957990e+00 6.769814754865119801e+37 1.009919997966640047e+06
-5.865088930062483996e+00 6.883181371621299925e+37 1.009940496351239970e+06
-5.841905963316094130e+00 6.994780431732930177e+37 1.009960778218189953e+06
-5.818514150916598737e+00 7.104500149923519803e+37 1.009980836060959962e+06
-5.794847624492831528e+00 7.212547067597110169e+37 1.010000714064539992e+06
-5.770901581097859889e+00 7.318772605970700269e+37 1.010020401907159947e+06
-5.746602268423885107e+00 7.423378585160869674e+37 1.010039942384899943e+06
-5.722043236426543444e+00 7.525880127667849657e+37 1.010059245910650003e+06
-5.697228432167321444e+00 7.626156637522880419e+37 1.010078301659869961e+06
-5.672081114433240145e+00 7.724388591109729953e+37 1.010097152601159993e+06
-5.646582626330200583e+00 7.820601206278559624e+37 1.010115796377180028e+06
-5.620647570991422981e+00 7.914847290356210017e+37 1.010134276679240051e+06
-5.594380306545644999e+00 8.006814190174000441e+37 1.010152504584379960e+06
-5.567770210735034198e+00 8.096410108115309668e+37 1.010170473568910034e+06
-5.540727698709815741e+00 8.183814826377620368e+37 1.010188254236120032e+06
-5.513219276617746800e+00 8.269109377097289560e+37 1.010205835980630014e+06
-5.485277927597053349e+00 8.352066719660879733e+37 1.010223180478679948e+06
-5.456903857586439699e+00 8.432549153682469793e+37 1.010240267001110013e+06
-5.428045955661218613e+00 8.510765418713290108e+37 1.010257107630109997e+06
-5.398603116278536618e+00 8.586897765541150062e+37 1.010273739208039944e+06
-5.368714008887764066e+00 8.660585464972030869e+37 1.010290072507019970e+06
-5.338306128571275622e+00 8.731941567226179100e+37 1.010306132390229963e+06
-5.307250781857874244e+00 8.801211408605000290e+37 1.010321968473469955e+06
-5.275683164189103991e+00 8.868160825465630082e+37 1.010337496291990043e+06
-5.243535550369415432e+00 8.932876447472519969e+37 1.010352738626949955e+06
-5.210686210542917252e+00 8.995620915041710829e+37 1.010367737846559961e+06
-5.177271093474701047e+00 9.056195934468110251e+37 1.010382420749680023e+06
-5.143174654745962471e+00 9.114828530358359265e+37 1.010396829311560025e+06
-5.108397925039753318e+00 9.171565819860379649e+37 1.010410953027039999e+06
-5.072924608655739576e+00 9.226487254121479602e+37 1.010424791299090022e+06
-5.036665770690888166e+00 9.279787037711039840e+37 1.010438372354079969e+06
-4.999731666699517518e+00 9.331425605492559081e+37 1.010451650809579995e+06
-4.961933293496258557e+00 9.381700325264909945e+37 1.010464691676720046e+06
-4.923408319300506264e+00 9.430607149763330049e+37 1.010477446485219989e+06
-4.883973956282716244e+00 9.478444013345680252e+37 1.010489977472039987e+06
-4.843782453972380608e+00 9.525205307616249148e+37 1.010502241014669999e+06
-4.802655261766631156e+00 9.571220233892029998e+37 1.010514299790029996e+06
-4.760659900435712188e+00 9.616651095292079549e+37 1.010526142413779977e+06
-4.717724994930904359e+00 9.661695976559489648e+37 1.010537802901030052e+06
-4.673819596588145941e+00 9.706619367847030635e+37 1.010549305018750019e+06
-4.628976708918344229e+00 9.751600531273779458e+37 1.010560658622349962e+06
-4.583074492285959423e+00 9.796967954126760700e+37 1.010571918397319969e+06
-4.536134965601377189e+00 9.842927898659159120e+37 1.010583104979729978e+06
-4.488160770095419139e+00 9.889814427746739393e+37 1.010594246395369992e+06
-4.439061744196806103e+00 9.937931054755509484e+37 1.010605397771960008e+06
-4.388814958336297423e+00 9.987549347359859444e+37 1.010616600748140016e+06
-4.337469066551420838e+00 1.003900804394750049e+38 1.010627884242339991e+06
-4.284956930961925536e+00 1.009256408906540058e+38 1.010639307655400014e+06
-4.231220687157474458e+00 1.014856377683919961e+38 1.010650930885619950e+06
-4.176206169067882001e+00 1.020740564269989994e+38 1.010662814026930020e+06
-4.119884913903661072e+00 1.026942289543929993e+38 1.010675015106379986e+06
-4.062367016391362995e+00 1.033481225964620068e+38 1.010687564071889967e+06
-4.003455121419392526e+00 1.040402462567409932e+38 1.010700560926420032e+06
-3.943181956128682941e+00 1.047735484505989908e+38 1.010714054031320033e+06
-3.881602426117751747e+00 1.055500390842930048e+38 1.010728089613149990e+06
-3.818602010142058134e+00 1.063732676237449946e+38 1.010742751897390001e+06
-3.754118044744245708e+00 1.072464902787250059e+38 1.010758112708820030e+06
-3.688287786906585097e+00 1.081702447700300070e+38 1.010774192116259946e+06
-3.620949545176699758e+00 1.091477801724069967e+38 1.010791082560710027e+06
-3.552167565678246319e+00 1.101799509337739906e+38 1.010808814658079995e+06
-3.481919318030122668e+00 1.112676970362760009e+38 1.010827436586000025e+06
-3.410066607932094485e+00 1.124132808662829978e+38 1.010847023362340056e+06
-3.339767806173767895e+00 1.135720077148470022e+38 1.010866692246870021e+06
-3.278577318007592112e+00 1.146226084257089941e+38 1.010884185332629946e+06
-3.225226511189248413e+00 1.155551242236399911e+38 1.010899748071430018e+06
-3.178549259842839092e+00 1.163824740937350025e+38 1.010913597962190048e+06
-3.137906070158351213e+00 1.171119572214309977e+38 1.010925827728520031e+06
-3.102392936067190021e+00 1.177551265500899948e+38 1.010936642838270054e+06
-3.071510831592604518e+00 1.183192258974739937e+38 1.010946140944810002e+06
-3.044594174076337367e+00 1.188138478597150085e+38 1.010954489563770010e+06
-3.021098207798786461e+00 1.192477586842620025e+38 1.010961828803490032e+06
-3.000440134608652443e+00 1.196304640492209950e+38 1.010968320486059994e+06
-2.982052079285494983e+00 1.199716673451620015e+38 1.010974128128429991e+06
-2.965232187591027468e+00 1.202833865898849930e+38 1.010979463891759980e+06
-2.949049620539881289e+00 1.205817836718920020e+38 1.010984615956709953e+06
-2.931106786185409874e+00 1.209068960030639934e+38 1.010990340708749951e+06
-2.895400545792654157e+00 1.215164104340349911e+38 1.011001830232369946e+06
-2.842711647565010935e+00 1.224396618433749974e+38 1.011018828323889989e+06
-2.779809250438120216e+00 1.235680252249199951e+38 1.011039213614420034e+06
-2.707106246962212026e+00 1.248716049751340080e+38 1.011062941697990056e+06
-2.622830671316478401e+00 1.263670936671339908e+38 1.011090615172090009e+06
-2.536852475779596716e+00 1.279036633903790085e+38 1.011118927844449994e+06
-2.449278981075622141e+00 1.294474486635779917e+38 1.011147832240590011e+06
-2.359975032799411565e+00 1.309947304987009952e+38 1.011177295368539984e+06
-2.269087208202108741e+00 1.325383366069989909e+38 1.011207148568729986e+06
-2.176651616231538355e+00 1.340705057308879969e+38 1.011237280597900040e+06
-2.082608430529944599e+00 1.355880674267230038e+38 1.011267600926900050e+06
-1.986966414668131620e+00 1.370837830759230048e+38 1.011297987000560039e+06
-1.889869967417325824e+00 1.385494024372160059e+38 1.011328268059890019e+06
-1.791272662754636258e+00 1.399785173452100058e+38 1.011358330052479985e+06
-1.691142723138909787e+00 1.413652186076740094e+38 1.011388044888000004e+06
-1.589435504400171340e+00 1.427023014939430028e+38 1.011417279442440020e+06
-1.486207303940318525e+00 1.439830408960009910e+38 1.011445867846630048e+06
-1.381520602852106094e+00 1.452003304429620053e+38 1.011473642100450001e+06
-1.275321200257167220e+00 1.463483434740689947e+38 1.011500459572519991e+06
-1.167605755850672722e+00 1.474204836501900003e+38 1.011526163506060024e+06
-1.058330453466624022e+00 1.484113912963540070e+38 1.011550602184989955e+06
-9.474896966130472720e-01 1.493155891075470091e+38 1.011573613102969946e+06
-8.350408201222307980e-01 1.501278812546739966e+38 1.011595040783370030e+06
-7.209718789090402424e-01 1.508435501491840058e+38 1.011614722622880014e+06
-6.052324133925139904e-01 1.514580779775739980e+38 1.011632503311490058e+06
-4.877995977876707911e-01 1.519674134328029949e+38 1.011648225836529979e+06
-3.686061854241415858e-01 1.523678847685500045e+38 1.011661746632830007e+06
-2.476134531898424029e-01 1.526563744812559980e+38 1.011672908712569973e+06
-1.247280423413030803e-01 1.528297458918740074e+38 1.011681565095319995e+06
0.000000000000000000e+00 1.528859426787789932e+38 1.011687575719780056e+06
1.266254375223070383e-01 1.528227086191350021e+38 1.011690810433540028e+06
2.552557298913598061e-01 1.526382660940299943e+38 1.011691155393810011e+06
3.743877538945525885e-01 1.524071092422980005e+38 1.011688995578009984e+06
4.822161407209932804e-01 1.521291721541099911e+38 1.011685096737090033e+06
5.791450816905125976e-01 1.518204816467870028e+38 1.011680049587909947e+06
