# time luminosity radius
-2.090465274146117736e+01 4.722341047974629664e+35 1.008151982866029954e+06
-1.886650911647302564e+01 4.891184414443079975e+35 1.008154820993609959e+06
-1.728875627469096798e+01 5.046428084717269861e+35 1.008157608568080002e+06
-1.605056431152479490e+01 5.188339728544420271e+35 1.008160279324930045e+06
-1.506061625896109035e+01 5.318361252666690314e+35 1.008162821984910057e+06
-1.424091098455392057e+01 5.440274481681319687e+35 1.008165266818000004e+06
-1.326670542977080913e+01 5.610874349692599974e+35 1.008168748041269951e+06
-1.293990554362244438e+01 5.672308401987969749e+35 1.008170014338520006e+06
-1.255917157221847447e+01 5.748550319004739765e+35 1.008171627036659978e+06
-1.213993815395951970e+01 5.839410928366450185e+35 1.008173600150770042e+06
-1.168501169241062598e+01 5.948304413265919774e+35 1.008176021561759990e+06
-1.119886066549224779e+01 6.079259253648720302e+35 1.008179034366050037e+06
-1.068979282276995946e+01 6.237330852588510231e+35 1.008182840639809961e+06
-1.017250230172066949e+01 6.428005143660919913e+35 1.008187711883830023e+06
-9.729950563661986962e+00 6.622183721576930064e+35 1.008193007292650058e+06
-9.376967583571968134e+00 6.803997921659229474e+35 1.008198245997629943e+06
-9.070222458249190822e+00 6.990360426086919348e+35 1.008203940982379951e+06
-8.848583939325180836e+00 7.144466659409869692e+35 1.008208905801950023e+06
-8.826149242100655101e+00 7.160492932850530511e+35 1.008209420431970037e+06
-8.781704873930721078e+00 7.193173935151150536e+35 1.008210485290220007e+06
-8.693260581268987153e+00 7.261316295218429743e+35 1.008212771443090052e+06
-8.577669908787356690e+00 7.358120457166909911e+35 1.008216154980550054e+06
-8.469274221548403148e+00 7.459362475292710300e+35 1.008219780848660041e+06
-8.460759883397258818e+00 7.464238773768240504e+35 1.008220073529919959e+06
-8.443816350474662613e+00 7.481097612675499729e+35 1.008220689570700051e+06
-8.410718028324481566e+00 7.512867184019769396e+35 1.008222075597629999e+06
-8.402605932598817162e+00 7.519858253578700518e+35 1.008222432552349987e+06
-8.397714089456712827e+00 7.524706271826709586e+35 1.008222649503250024e+06
-8.393374734034296125e+00 7.531032984046640052e+35 1.008222842335539986e+06
-8.389464506697549950e+00 7.532504942715209623e+35 1.008223016729349969e+06
-8.386015869880793616e+00 7.538698391547280265e+35 1.008223170568870031e+06
-8.382909338833997026e+00 7.538916911471990679e+35 1.008223309010419995e+06
-8.380058070804807357e+00 7.542371501816789565e+35 1.008223435666449950e+06
-8.377343659252801444e+00 7.545108108668239560e+35 1.008223555447350023e+06
-8.374639547400875017e+00 7.547441772246899681e+35 1.008223673767240020e+06
-8.371778039232594892e+00 7.550758215491620511e+35 1.008223797467650031e+06
-8.368402594271174166e+00 7.554645301270040076e+35 1.008223941028889967e+06
-8.363587038060359191e+00 7.557769846558770063e+35 1.008224141990849981e+06
-8.354004081207676791e+00 7.567491176503240467e+35 1.008224538383650011e+06
-8.334933997066400480e+00 7.586933569160989756e+35 1.008225345255370019e+06
-8.296984529632027261e+00 7.627354554560660615e+35 1.008227060908850050e+06
-8.254573854930640664e+00 7.672535199921210027e+35 1.008229136649879976e+06
-8.224805965779523831e+00 7.706679902792529672e+35 1.008230689641900011e+06
-8.201618003142357338e+00 7.732819505174010519e+35 1.008231964131109999e+06
-8.182400180499826092e+00 7.754984184706530539e+35 1.008233067804040038e+06
-8.164498076206655242e+00 7.776946967075750301e+35 1.008234145543229999e+06
-8.146304583897290286e+00 7.801048374385579837e+35 1.008235301757149980e+06
-8.128776062803808600e+00 7.821354529314739738e+35 1.008236478807120002e+06
-8.112154985312372446e+00 7.842811024589990650e+35 1.008237656231250032e+06
-8.095684590487508103e+00 7.863571565534730120e+35 1.008238894899940002e+06
-8.079595953226089478e+00 7.885191257654450706e+35 1.008240183385030017e+06
-8.063643507404776756e+00 7.903449400114549367e+35 1.008241552850130014e+06
-8.047992681742471177e+00 7.926294304358649606e+35 1.008242993626500014e+06
-8.032298243502737023e+00 7.945568057635210380e+35 1.008244565305529977e+06
-8.020352663530502468e+00 7.965103583604629500e+35 1.008245872966600000e+06
-8.004277511143300217e+00 7.991840220493019762e+35 1.008247851447739988e+06
-7.989219924274948426e+00 8.008736492177730596e+35 1.008249910999860032e+06
-7.974659816718485672e+00 8.029376281903139937e+35 1.008252108045549947e+06
-7.959956945807789452e+00 8.047656881404060221e+35 1.008254588480970007e+06
-7.945948492895695381e+00 8.069755086507660422e+35 1.008257223362970049e+06
-7.932841944762913045e+00 8.093807557030189516e+35 1.008260006241569994e+06
-7.922084144396649208e+00 8.115740032861749542e+35 1.008262454157229979e+06
-7.911947193024388980e+00 8.130697361710790577e+35 1.008264933826809982e+06
-7.902135096002893988e+00 8.144952089389979977e+35 1.008267402428840054e+06
-7.892138062787125818e+00 8.166100587447049273e+35 1.008269953926280024e+06
-7.881346748879877850e+00 8.174019975403859879e+35 1.008272754510379978e+06
-7.870354719838360325e+00 8.197451981369979321e+35 1.008275815320029971e+06
-7.859097454362199642e+00 8.229103328698899753e+35 1.008279296934599988e+06
-7.846386328492371831e+00 8.230759257786610194e+35 1.008283223981149960e+06
-7.833606420907017309e+00 8.265097627140079973e+35 1.008287540963510051e+06
-7.824407391337445006e+00 8.316601366809900433e+35 1.008290513898469973e+06
-7.809869479060580488e+00 8.577459074646309772e+35 1.008295188788369996e+06
-7.802872227934130933e+00 8.778412800778099955e+35 1.008297377977819997e+06
-7.788947698194533587e+00 9.810153550033809518e+35 1.008301694888510043e+06
-7.771016988976043649e+00 1.348837000103800028e+36 1.008307203175729956e+06
-7.752092062844894826e+00 1.949855223395050129e+36 1.008312953354920028e+06
-7.730409602467261720e+00 3.452309799936009983e+36 1.008319687524780049e+06
-7.706512918462976813e+00 3.685374163590059975e+36 1.008327094127789955e+06
-7.679586701575317420e+00 4.060445942936859834e+36 1.008335505215900019e+06
-7.649827938934322447e+00 4.682337087184619976e+36 1.008345011179010035e+06
-7.616559133632108569e+00 6.196649581293839460e+36 1.008356585259219981e+06
-7.589137889059202280e+00 6.232448011611449581e+36 1.008366281407169998e+06
-7.558054790286405478e+00 6.397997773462310194e+36 1.008377646114640054e+06
-7.526991533144610003e+00 6.687014177837939552e+36 1.008389522725119954e+06
-7.497443625870801043e+00 6.886527812897309462e+36 1.008401289907710045e+06
-7.468928614172909874e+00 7.084328090813230155e+36 1.008413149682480027e+06
-7.441690741485217586e+00 7.287599665746200229e+36 1.008425014031050028e+06
-7.416325876329210587e+00 7.627461086369560144e+36 1.008436773987900000e+06
-7.392511468955490272e+00 7.881505921896209749e+36 1.008448353964549955e+06
-7.369930615350313019e+00 8.122658640247219514e+36 1.008459825370279956e+06
-7.348492686171084642e+00 8.380018006300040156e+36 1.008471165876080049e+06
-7.327779130224371329e+00 8.651532501603959865e+36 1.008482554988329997e+06
-7.307735184498596936e+00 8.932750163446560249e+36 1.008493998492049985e+06
-7.288354634256393183e+00 9.221242293400170369e+36 1.008505464196930057e+06
-7.269537114545528311e+00 9.516759231124449874e+36 1.008516988854289986e+06
-7.251224894775077701e+00 9.820134125872459790e+36 1.008528629064989975e+06
-7.233638416764733847e+00 1.012458160215440057e+37 1.008540211085019982e+06
-7.216710099375632126e+00 1.043909911644480053e+37 1.008551774790019961e+06
-7.200383353578217793e+00 1.075876456291409940e+37 1.008563250773170032e+06
-7.184565855044638738e+00 1.108090785547029893e+37 1.008574670369429979e+06
-7.169106895016739145e+00 1.140087826627629963e+37 1.008586121091490029e+06
-7.154073356257867999e+00 1.173213478714960086e+37 1.008597538828660036e+06
-7.139330059399071615e+00 1.206394899718109983e+37 1.008609013680099975e+06
-7.124899609538260847e+00 1.239357730510990039e+37 1.008620504877940053e+06
-7.110712086003331933e+00 1.272238167528349995e+37 1.008632052940530004e+06
-7.096706391959742177e+00 1.304886611528720018e+37 1.008643695784920012e+06
-7.082880368245241698e+00 1.337308647195039932e+37 1.008655418631899985e+06
-7.069212938906275667e+00 1.369423854245919964e+37 1.008667229565490037e+06
-7.055703659469145350e+00 1.401278379431079949e+37 1.008679115216530045e+06
-7.042334692967415322e+00 1.432728241203969983e+37 1.008691079839039943e+06
-7.029093266966810916e+00 1.463762586170100037e+37 1.008703129852280021e+06
-7.015980514443072025e+00 1.494284921287530080e+37 1.008715265120030032e+06
-7.002995320224727038e+00 1.524378735674460099e+37 1.008727470506109996e+06
-6.990420385584002361e+00 1.553506294113040000e+37 1.008739464076549979e+06
-6.978683243047271390e+00 1.573469169836619893e+37 1.008750794871169957e+06
-6.967541171055927407e+00 1.596027363597400067e+37 1.008761672725050012e+06
-6.956538380931306165e+00 1.621826462509040018e+37 1.008772546789509943e+06
-6.945724570148740895e+00 1.653788328227190043e+37 1.008783363954070024e+06
-6.934873113292269409e+00 1.710702433905959966e+37 1.008794349882920040e+06
-6.923759229197457898e+00 1.736553985059880006e+37 1.008805703670830000e+06
-6.913359009289706592e+00 1.781537086715569890e+37 1.008816433203199995e+06
-6.902886092255357653e+00 1.804377007411520104e+37 1.008827336347969947e+06
-6.892815317951317411e+00 1.846214241156219975e+37 1.008837923372640042e+06
-6.883258387388195843e+00 1.874361270122919898e+37 1.008848052580739954e+06
-6.874117215011210646e+00 1.931811877842229890e+37 1.008857820941269980e+06
-6.864726873813197017e+00 1.969374081112959947e+37 1.008867929891410051e+06
-6.855565621808636934e+00 1.999459018121809958e+37 1.008877852316429955e+06
-6.846116718857956585e+00 2.039840024115480115e+37 1.008888157763700001e+06
-6.836904867755947635e+00 2.101523038501400086e+37 1.008898263878699974e+06
-6.827302869525738060e+00 2.144315536986529795e+37 1.008908860564709990e+06
-6.817987315334903542e+00 2.190957638157039870e+37 1.008919192128470051e+06
-6.808268581902666483e+00 2.237897720098619790e+37 1.008930029207819956e+06
-6.798921519264695235e+00 2.304270548027339978e+37 1.008940489291239996e+06
-6.789135116428951733e+00 2.349846797641080144e+37 1.008951481444710051e+06
-6.778876325508463196e+00 2.408467946384190159e+37 1.008963049016469973e+06
-6.769045718036068138e+00 2.466095102120649835e+37 1.008974156472299946e+06
-6.758799847542832140e+00 2.524092814422289929e+37 1.008985764507240034e+06
-6.748116656126512680e+00 2.579260718903639913e+37 1.008997890290559968e+06
-6.736979502995382063e+00 2.641165139145370233e+37 1.009010541156259947e+06
-6.725170727368094958e+00 2.703524138724409849e+37 1.009023956106069963e+06
-6.713315154265728779e+00 2.774258573736719953e+37 1.009037433160939952e+06
-6.702330427302513272e+00 2.831637127201220094e+37 1.009049888693180052e+06
-6.691202207046444528e+00 2.885632881724819825e+37 1.009062475143990014e+06
-6.679881115574971773e+00 2.943228222698900123e+37 1.009075245977189974e+06
-6.667784882418345660e+00 3.007301889161910145e+37 1.009088855185420020e+06
-6.654862835246603936e+00 3.077625813005959864e+37 1.009103330832130043e+06
-6.640958341864461545e+00 3.154246413385299955e+37 1.009118836184039945e+06
-6.625908698777493555e+00 3.237736274260010063e+37 1.009135538960839971e+06
-6.609518542238220107e+00 3.329518951038589768e+37 1.009153626735480037e+06
-6.591354865267931018e+00 3.432974832143400127e+37 1.009173543096960057e+06
-6.570164598299015779e+00 3.554638494220840061e+37 1.009196612657599966e+06
-6.546701556253538001e+00 3.691101051993380077e+37 1.009221956672459957e+06
-6.521802537317853421e+00 3.837985430987950229e+37 1.009248606746610021e+06
-6.496913777162262704e+00 3.986708720019929781e+37 1.009274970977779943e+06
-6.472545602155150846e+00 4.133626477155370186e+37 1.009300520915410016e+06
-6.448515129268344026e+00 4.279371062844840306e+37 1.009325448038310045e+06
-6.424893620904185809e+00 4.423045953051809583e+37 1.009349687865869957e+06
-6.401568712906737346e+00 4.565132750273860119e+37 1.009373349937770050e+06
-6.378408914482861292e+00 4.706080773830629830e+37 1.009396577562090009e+06
-6.355516901654482353e+00 4.845130781256790002e+37 1.009419260624750052e+06
-6.332819166877015959e+00 4.982519694185199566e+37 1.009441468874020036e+06
-6.310206309033674188e+00 5.118691590571709595e+37 1.009463315673539997e+06
-6.287643128132913262e+00 5.253747051164110082e+37 1.009484824880869943e+06
-6.265222041824017651e+00 5.387000498288559662e+37 1.009505915374409989e+06
-6.242856584962282795e+00 5.518828750470229793e+37 1.009526665568619967e+06
-6.220521785231539980e+00 5.649224080889120362e+37 1.009547082527630031e+06
-6.198135929975251202e+00 5.778495554924950305e+37 1.009567235162129975e+06
-6.175688570605416317e+00 5.906620815421580436e+37 1.009587125417449977e+06
-6.153259868930035736e+00 6.032990863002799793e+37 1.009606674370890018e+06
-6.130788886301161256e+00 6.157790111106440216e+37 1.009625929597069975e+06
-6.108264208123728167e+00 6.280968526791089714e+37 1.009644909518250031e+06
-6.085616587421100121e+00 6.402792682863240324e+37 1.009663654823309975e+06
-6.062842993262165692e+00 6.523151151557420175e+37 1.009682159909670008e+06
-6.039889969055366237e+00 6.642130709480430055e+37 1.009700454630829976e+06
-6.016842018078023102e+00 6.759171690276429764e+37 1.009718464553270023e+06
-5.993686271714977920e+00 6.874252345404080365e+37 1.009736194430670002e+06
-5.970358371785550844e+00 6.987572869920339769e+37 1.009753686080079991e+06
-5.946854919733596034e+00 7.099085817041489969e+37 1.009770940031639999e+06
-5.923107555245223921e+00 7.208880222412890056e+37 1.009787991921770037e+06
-5.899114768479194026e+00 7.316906629067640463e+37 1.009804831059469958e+06
-5.874933797713310923e+00 7.422804991092930148e+37 1.009821407505549956e+06
-5.850538669721572660e+00 7.526572285934970267e+37 1.009837730121330009e+06
-5.825919241382507607e+00 7.628168511222669785e+37 1.009853797582600033e+06
-5.801005319619434886e+00 7.727826490861880374e+37 1.009869649335609982e+06
-5.775788785897020716e+00 7.825384226082259983e+37 1.009885155993380002e+06
-5.750233636448683683e+00 7.920948808701969927e+37 1.009900433070549974e+06
-5.724416416094754823e+00 8.014120750072789761e+37 1.009915456277959980e+06
-5.698314356632181443e+00 8.104944036716360200e+37 1.009930301352679962e+06
-5.671849956408550497e+00 8.193953143722990196e+37 1.009944776781419991e+06
-5.645003667268611025e+00 8.281030598521539577e+37 1.009959004262779956e+06
-5.617756633269891609e+00 8.366144939623280209e+37 1.009972993555580033e+06
-5.590169080096529797e+00 8.448903171288629767e+37 1.009986724243649980e+06
-5.562205479720432777e+00 8.529366560336180160e+37 1.010000190284600016e+06
-5.533773425944673363e+00 8.607663919124939714e+37 1.010013422322159982e+06
-5.504853794263908640e+00 8.683837834464440371e+37 1.010026417329429998e+06
-5.475566510125645436e+00 8.757564188726320769e+37 1.010039113575709984e+06
-5.445806839612487238e+00 8.829089054775410595e+37 1.010051551304160035e+06
-5.415526484044676181e+00 8.898468149611480617e+37 1.010063741062639980e+06
-5.384759614702488761e+00 8.965694100070770624e+37 1.010075663069949951e+06
-5.353507065490703098e+00 9.030775359403659612e+37 1.010087312766270014e+06
-5.321702113287756220e+00 9.093853478374159603e+37 1.010098710758280009e+06
-5.289338353883067612e+00 9.154992972493090736e+37 1.010109855132509954e+06
-5.256457042451074813e+00 9.214172588233420850e+37 1.010120730190939968e+06
-5.222977649296808522e+00 9.271571722873599351e+37 1.010131362224600045e+06
-5.188958843194996007e+00 9.327208374302999276e+37 1.010141733252929989e+06
-5.154394699042313732e+00 9.381153419295469158e+37 1.010151849214480026e+06
-5.119259741433779709e+00 9.433565789454020165e+37 1.010161721997780027e+06
-5.083711397339357063e+00 9.484350776641020531e+37 1.010171317694340018e+06
-5.047626207691791933e+00 9.533784908329040553e+37 1.010180692422530032e+06
-5.010946406204311643e+00 9.582075876754259543e+37 1.010189864198619965e+06
-4.973632471934251953e+00 9.629412226777080497e+37 1.010198851859070011e+06
-4.935604294958466198e+00 9.676018073052850591e+37 1.010207683029540000e+06
-4.896939575803116895e+00 9.722011150794310328e+37 1.010216349606830045e+06
-4.857723446322779637e+00 9.767456248133510873e+37 1.010224846767970012e+06
-4.817384756563114934e+00 9.813026758449929301e+37 1.010233310784579953e+06
-4.776723147799202707e+00 9.858300804251900207e+37 1.010241589440459968e+06
-4.734065140692109708e+00 9.904758883463359375e+37 1.010250038022550056e+06
-4.691938204006874003e+00 9.950755298110820185e+37 1.010258170357219991e+06
-4.648485837591579184e+00 9.997542171795569643e+37 1.010266383463170030e+06
-4.602093359462742228e+00 1.004712373700840072e+38 1.010274985888410010e+06
-4.556831997215340380e+00 1.009657142645249957e+38 1.010283238526890054e+06
-4.511118347756564617e+00 1.014653205206170081e+38 1.010291484484149958e+06
-4.463276861672056839e+00 1.019905271144630061e+38 1.010300048234240036e+06
-4.411617720019421540e+00 1.025633935552000083e+38 1.010309254234279972e+06
-4.358550907716562506e+00 1.031695026483130089e+38 1.010318694665099960e+06
-4.311738056348985992e+00 1.037324045302789932e+38 1.010327024493479985e+06
-4.271364405416534282e+00 1.042293160571940038e+38 1.010334246819140040e+06
-4.236599062031018548e+00 1.046645175030710036e+38 1.010340505755319959e+06
-4.206591287882474717e+00 1.050455883498020004e+38 1.010345943270870019e+06
-4.180680577614111826e+00 1.053789679183879924e+38 1.010350666890230030e+06
-4.158199412617250346e+00 1.056713061686959941e+38 1.010354788472049986e+06
-4.138497271189407911e+00 1.059296166829520016e+38 1.010358418930159998e+06
-4.120894090840010904e+00 1.061616292733980059e+38 1.010361676971610053e+06
-4.104460663133068010e+00 1.063781921537200060e+38 1.010364729761890019e+06
-4.087291240270133130e+00 1.066017254897070079e+38 1.010367922373060021e+06
-4.055971113550185692e+00 1.069845047507340044e+38 1.010373788090190035e+06
-4.012304695817874745e+00 1.075484561417199928e+38 1.010382005414490006e+06
-3.960394004898262210e+00 1.082518815789600092e+38 1.010391880642159958e+06
-3.899693984305486083e+00 1.090981495129939964e+38 1.010403637270709965e+06
-3.836765639018267393e+00 1.100152248628939944e+38 1.010416057143040001e+06
-3.771979667617415544e+00 1.109833197281469999e+38 1.010429136041179998e+06
-3.703805195822496898e+00 1.120227042315070046e+38 1.010443234643560019e+06
-3.630558644064876717e+00 1.131628038834220089e+38 1.010458764748750022e+06
-3.550180175596324261e+00 1.144407504796829944e+38 1.010476255666550016e+06
-3.459908270335290581e+00 1.159043628556590081e+38 1.010496433821760002e+06
-3.365571694390382618e+00 1.174926112491529956e+38 1.010518063063340029e+06
-3.276724989889771678e+00 1.190488824194519990e+38 1.010538899239449995e+06
-3.189823148539289832e+00 1.205877053388559933e+38 1.010559736555380048e+06
-3.102727817698905710e+00 1.221464565616520070e+38 1.010581011442429968e+06
-3.013675198169948999e+00 1.237532606869750013e+38 1.010603105265490012e+06
-2.920971684136020485e+00 1.254321172436129973e+38 1.010626390621599974e+06
-2.822807207659934647e+00 1.272304143507380032e+38 1.010647239619479980e+06
-2.717069290942163207e+00 1.291367773665770025e+38 1.010671435758330044e+06
-2.601000865150126629e+00 1.312316540782669908e+38 1.010699518096089945e+06
-2.471109020742005669e+00 1.335968797233319948e+38 1.010726240091510001e+06
-2.332541933072207030e+00 1.360049536135259945e+38 1.010756774222959997e+06
-2.203702206912566908e+00 1.382361567325220024e+38 1.010785860337230028e+06
-2.079129543817543890e+00 1.403048049359120012e+38 1.010813879281830043e+06
-1.955808649901882745e+00 1.422582070243359940e+38 1.010840946215440053e+06
-1.831476503153680824e+00 1.441206950241459951e+38 1.010867203607560019e+06
-1.704176984290825203e+00 1.459058429248099964e+38 1.010892748298619990e+06
-1.571960804576519877e+00 1.476193526645490032e+38 1.010917615605560015e+06
