# time luminosity radius
-2.357196934192324989e+01 4.472985640189629908e+35 1.008114999656819971e+06
-1.884908062325848732e+01 4.817218396862579896e+35 1.008120770026599988e+06
-1.571247035799024161e+01 5.155925654937240278e+35 1.008127181616579997e+06
-1.365739429170207586e+01 5.470231600348680267e+35 1.008133617022390012e+06
-1.231594440221670084e+01 5.745093028203490318e+35 1.008139636437140056e+06
-1.143352134349697735e+01 5.973425507344230104e+35 1.008144972507640021e+06
-1.083266801181889605e+01 6.160637837128860330e+35 1.008149606018509949e+06
-1.039965017084614374e+01 6.317572572697320241e+35 1.008153700068710023e+06
-1.006088687367446255e+01 6.457565360718749957e+35 1.008157515436029993e+06
-9.742239537285058759e+00 6.608854574675230037e+35 1.008161769519630005e+06
-9.526119842688785866e+00 6.589498738366510065e+35 1.008355786747439997e+06
-9.435983559713349678e+00 6.631113012119480268e+35 1.008358976680370048e+06
-9.294727596497978084e+00 6.695651365301569949e+35 1.008364332479550038e+06
-9.273461900462280028e+00 6.705271450193869728e+35 1.008365146877510007e+06
-9.231143165350658819e+00 6.724890993054260368e+35 1.008366792458659969e+06
-9.146928882473730482e+00 6.764280572819859458e+35 1.008370125458320021e+06
-9.130170240183360875e+00 6.772205476714999436e+35 1.008370790453169961e+06
-9.096820542021305300e+00 6.788201046009579746e+35 1.008372124641460017e+06
-9.030454642677796073e+00 6.820435505748070315e+35 1.008374815320290043e+06
-8.981107203057035804e+00 6.845333523148900150e+35 1.008376834806779982e+06
-8.948991557685076259e+00 6.861376336692099677e+35 1.008378153530120035e+06
-8.912372930353740230e+00 6.880247823271850423e+35 1.008379663841119967e+06
-8.849949103067046963e+00 6.913969608469970395e+35 1.008382276115490007e+06
-8.725725686774239875e+00 6.989567799495999757e+35 1.008387721701210015e+06
-8.619043434198829345e+00 7.059209135967230532e+35 1.008392689937329968e+06
-8.535361793590709567e+00 7.119830492537120214e+35 1.008396858965459978e+06
-8.466168173239566386e+00 7.173304624910850666e+35 1.008400552839569980e+06
-8.408057035077945329e+00 7.222326094634589846e+35 1.008403898126970045e+06
-8.358444565979880281e+00 7.266854947275860006e+35 1.008406980859430041e+06
-8.314945901351165958e+00 7.304300400895539405e+35 1.008409894973280025e+06
-8.281125144974794239e+00 7.336826240071569907e+35 1.008412337952799979e+06
-8.252643132072989829e+00 7.365978171421790637e+35 1.008414541096930043e+06
-8.226828893850324675e+00 7.390724977834039474e+35 1.008416700744049973e+06
-8.203506344536435790e+00 7.419777051413120156e+35 1.008418809331879951e+06
-8.181941886141430587e+00 7.440139709374730142e+35 1.008420937145219999e+06
-8.163854700629599392e+00 7.457513378741519979e+35 1.008422874182809959e+06
-8.148987480875803158e+00 7.475174085362280418e+35 1.008424561988599948e+06
-8.138810991149512120e+00 7.488330403634629857e+35 1.008425804226889974e+06
-8.124582736782031134e+00 7.504580790864149598e+35 1.008427791564580053e+06
-8.110150671753217466e+00 7.523177535994440665e+35 1.008430048862620024e+06
-8.093499914553831331e+00 7.330414785026339459e+35 1.008432974896000000e+06
-8.078757650509942323e+00 7.559384159299090458e+35 1.008435825148329954e+06
-8.064388499711640179e+00 7.582908224237269684e+35 1.008438885950880009e+06
-8.052621341281337664e+00 7.587080841152419505e+35 1.008441505784859997e+06
-8.041791907860897481e+00 7.606185172270659658e+35 1.008444032438389957e+06
-8.031436775228939950e+00 7.621248369703069479e+35 1.008446508005419979e+06
-8.020920214694342576e+00 7.632904218418279979e+35 1.008449141986759962e+06
-8.009934406116371974e+00 7.650889526804309714e+35 1.008452041352260043e+06
-7.998274354671593755e+00 7.708135748051210062e+35 1.008455255425350042e+06
-7.986061031770077534e+00 7.681370063599670390e+35 1.008459375415349961e+06
-7.979472370585426688e+00 7.692265028417170171e+35 1.008461448600189993e+06
-7.966360934820841067e+00 7.711744134542230034e+35 1.008465396514829947e+06
-7.950828755769180134e+00 7.772462770853540461e+35 1.008469894082610030e+06
-7.932959466183092445e+00 7.956889153468370505e+35 1.008474938086200040e+06
-7.911192644140101038e+00 9.449177925543369802e+35 1.008481103173019947e+06
-7.888183119925088249e+00 1.189740735817599965e+36 1.008487487825930002e+06
-7.862515762346447445e+00 1.655112806884660063e+36 1.008494575458270032e+06
-7.835510896256892011e+00 2.133504342736770040e+36 1.008502030800290057e+06
-7.806338946713367477e+00 3.683234802434309726e+36 1.008510605002110009e+06
-7.781792261012014933e+00 3.764574264088269861e+36 1.008517832698549959e+06
-7.747700083913514391e+00 4.134480464928709811e+36 1.008528197874550009e+06
-7.716369957997812890e+00 4.362972198219319904e+36 1.008537913726669969e+06
-7.687222821812611073e+00 4.575334285166939840e+36 1.008547191650460009e+06
-7.659695574475335889e+00 4.972676657975019878e+36 1.008556322290770011e+06
-7.633342451343196444e+00 5.174756358356430265e+36 1.008565354170039995e+06
-7.606835617116303183e+00 5.371558777004670376e+36 1.008574774196170038e+06
-7.577607824554434046e+00 5.582874656004189743e+36 1.008585622839309974e+06
-7.546606312098447233e+00 5.825614952493989755e+36 1.008597663879430038e+06
-7.517982615070650354e+00 6.061788151500760003e+36 1.008609313296240056e+06
-7.491622745728818700e+00 6.284039742577290282e+36 1.008620552445359994e+06
-7.467517700191820040e+00 6.495277644424570055e+36 1.008631295200539986e+06
-7.445219982168055139e+00 6.700565261604500471e+36 1.008641680380280013e+06
-7.424427133795688860e+00 6.899343450571180227e+36 1.008651782343429979e+06
-7.404773344649584033e+00 7.099164786631230045e+36 1.008661727399889962e+06
-7.386005587075487711e+00 7.300531476787580460e+36 1.008671608873349964e+06
-7.367959103896282613e+00 7.505997263189490020e+36 1.008681490557059995e+06
-7.350606169900856912e+00 7.714896440101709786e+36 1.008691366512860055e+06
-7.333739452558802441e+00 7.929172208673699701e+36 1.008701336017120047e+06
-7.317242009230540134e+00 8.150073185907059676e+36 1.008711466052080039e+06
-7.301083671642118134e+00 8.378808528319540267e+36 1.008721771116420045e+06
-7.285271713801193982e+00 8.615195562149299545e+36 1.008732244294179953e+06
-7.269730652988073416e+00 8.859810453550660052e+36 1.008742915543540032e+06
-7.254433561727637425e+00 9.112322715439160177e+36 1.008753808855940006e+06
-7.239451041677966714e+00 9.372841542150619813e+36 1.008764882591909962e+06
-7.224691336217802018e+00 9.638897297002089517e+36 1.008776208202220034e+06
-7.210064272498129867e+00 9.917590709861099795e+36 1.008787861951870029e+06
-7.195655656018061563e+00 1.020577245392060010e+37 1.008799778572679963e+06
-7.181393383216345683e+00 1.050622854844980017e+37 1.008812013422220014e+06
-7.167304557049646974e+00 1.081758344669970065e+37 1.008824537181399995e+06
-7.153422695002518594e+00 1.113846293606320026e+37 1.008837310353429988e+06
-7.139825428806943819e+00 1.146591592898890117e+37 1.008850245328570018e+06
-7.126444495748728514e+00 1.180070222431770110e+37 1.008863396110489964e+06
-7.113291641071555205e+00 1.214037590788160014e+37 1.008876739833920030e+06
-7.100345114216906950e+00 1.248484023326649996e+37 1.008890289479880012e+06
-7.087639048913842998e+00 1.283055879222410052e+37 1.008903997981740045e+06
-7.075215300268610008e+00 1.317561782289290091e+37 1.008917804893870023e+06
-7.063021403184393421e+00 1.352114167887259890e+37 1.008931755116309971e+06
-7.051046394408331253e+00 1.386618251651999917e+37 1.008945848413500004e+06
-7.039277001036680304e+00 1.420993851167179902e+37 1.008960083196930005e+06
-7.027677001547999680e+00 1.455356463205270052e+37 1.008974485856779967e+06
-7.016215778581681661e+00 1.489767164721859993e+37 1.008989073316339985e+06
-7.004880181251792237e+00 1.524084368971520099e+37 1.009003828454980045e+06
-6.993928241470712237e+00 1.555558634691980065e+37 1.009018362482039956e+06
-6.983042181076598354e+00 1.588963392984469907e+37 1.009033056623580051e+06
-6.972798166243592277e+00 1.611066147155999981e+37 1.009047054754370009e+06
-6.962611867682426237e+00 1.647637294331760010e+37 1.009061143770709983e+06
-6.952595187496626750e+00 1.663328468358629982e+37 1.009075142153369961e+06
-6.943051454203668982e+00 1.689715933850199885e+37 1.009088500103799975e+06
-6.933448188763577491e+00 1.723459711845880076e+37 1.009102008533869986e+06
-6.924013467185432091e+00 1.763108592503139889e+37 1.009115337173979962e+06
-6.914982485119253397e+00 1.828301655754079976e+37 1.009128139417949948e+06
-6.905706824181834236e+00 1.906323901694510102e+37 1.009141364155270043e+06
-6.896714295988203958e+00 1.930421801063209979e+37 1.009154234950009966e+06
-6.888066984945908189e+00 1.991928785222330005e+37 1.009166685307160020e+06
-6.879062970852828585e+00 2.012644162686789924e+37 1.009179754097779980e+06
-6.870418103862903081e+00 2.067914330338359890e+37 1.009192415339000057e+06
-6.862027031223988160e+00 2.089218375879229948e+37 1.009204817833550042e+06
-6.853894223313545808e+00 2.141865463186719804e+37 1.009216954556170036e+06
-6.845448661508271471e+00 2.168001513430689822e+37 1.009229686032430036e+06
-6.837241196612012573e+00 2.206496880218510196e+37 1.009242178728500032e+06
-6.829251942341215909e+00 2.239537002169049961e+37 1.009254448942180024e+06
-6.821451613475801423e+00 2.322388089114049918e+37 1.009266528474700055e+06
-6.813750506742508151e+00 2.327349060249220205e+37 1.009278546397260041e+06
-6.805705720718833618e+00 2.394015058409109981e+37 1.009291193737150053e+06
-6.797798353829421103e+00 2.414779079085349984e+37 1.009303708615759970e+06
-6.790179143165005371e+00 2.490300796112139972e+37 1.009315840572820045e+06
-6.782776272593764588e+00 2.483009063157739900e+37 1.009327690466149943e+06
-6.774977335211588070e+00 2.555204806159080081e+37 1.009340239832559950e+06
-6.767510336227132939e+00 2.599507085321420050e+37 1.009352306270790054e+06
-6.760217146307695657e+00 2.646219766297719959e+37 1.009364137740080012e+06
-6.753062880859943107e+00 2.680480987273359954e+37 1.009375784656550037e+06
-6.746007127949269488e+00 2.719061501212110157e+37 1.009387308409919962e+06
-6.739049181283917278e+00 2.757627194022820070e+37 1.009398705735779949e+06
-6.732156027195742354e+00 2.796914317893380056e+37 1.009410026618500007e+06
-6.725288095534779131e+00 2.835486841575629920e+37 1.009421326966059976e+06
-6.718085902306484058e+00 2.875721709598539848e+37 1.009433202446329989e+06
-6.710749952631886117e+00 2.917077699037849766e+37 1.009445314997249981e+06
-6.702915457077324390e+00 2.960980130182870146e+37 1.009458271944649983e+06
-6.694933777456753887e+00 3.005693435518909916e+37 1.009471487216899986e+06
-6.686372471594950184e+00 3.053786295145500060e+37 1.009485676962519996e+06
-6.677003521122969687e+00 3.106382085224929961e+37 1.009501210961609962e+06
-6.667063879984198138e+00 3.162071490377510130e+37 1.009517691117719980e+06
-6.655572930365451612e+00 3.226270667389680033e+37 1.009536756342530018e+06
-6.642413383800885640e+00 3.299904135024430000e+37 1.009558593755719950e+06
-6.626436503109289333e+00 3.389661345006900151e+37 1.009585123916490003e+06
-6.609388682947610505e+00 3.486342677832060144e+37 1.009613422609740053e+06
-6.593021570472046733e+00 3.580184503311820133e+37 1.009640568994160043e+06
-6.576899860752746463e+00 3.673363618962550209e+37 1.009667294186859974e+06
-6.560883733036462218e+00 3.766666088039129766e+37 1.009693825707060052e+06
-6.545031256304355338e+00 3.859772431330059894e+37 1.009720057726230007e+06
-6.528858494071755558e+00 3.955431774301229818e+37 1.009746776754250051e+06
-6.507201299231383018e+00 4.083893670126330110e+37 1.009782531464620028e+06
-6.485960708683705889e+00 4.211543381469689974e+37 1.009817509933770052e+06
-6.465028663515113294e+00 4.338196702590769834e+37 1.009851898737680051e+06
-6.444340435802587308e+00 4.463908133850619919e+37 1.009885803397770040e+06
-6.423789515276439488e+00 4.589135591427219965e+37 1.009919397371349973e+06
-6.403341349563561380e+00 4.713924613252240084e+37 1.009952733131870045e+06
-6.383047552924836054e+00 4.837781757883539870e+37 1.009985724492239999e+06
-6.362851365891401656e+00 4.960885886944910346e+37 1.010018461235819967e+06
-6.342730787713662721e+00 5.083202385456030094e+37 1.010050978058609995e+06
-6.322611607669387013e+00 5.205010119264440090e+37 1.010083387888600002e+06
-6.302488753790385090e+00 5.326203711995480372e+37 1.010115696296959999e+06
-6.282292736563249491e+00 5.447016666136770020e+37 1.010148012020649971e+06
-6.262079517822712660e+00 5.566975479046269788e+37 1.010180236314520007e+06
-6.241860886992071755e+00 5.685852847963480331e+37 1.010212349684859975e+06
-6.221578917946317233e+00 5.803855610403119715e+37 1.010244438217699993e+06
-6.201234960841247812e+00 5.920822190404130419e+37 1.010276494539899984e+06
-6.180772541920305230e+00 6.036922047942920308e+37 1.010308601908219978e+06
-6.160199279911466874e+00 6.151968502255369677e+37 1.010340738240720006e+06
-6.139457709286944009e+00 6.266149141020169725e+37 1.010372987850980018e+06
-6.118559088266920298e+00 6.379257840945570407e+37 1.010405324337559985e+06
-6.097443432561703958e+00 6.491442401116089757e+37 1.010437830393080018e+06
-6.076184760182513855e+00 6.602190263159580235e+37 1.010470382340610027e+06
-6.054783459010650404e+00 6.711398022266679560e+37 1.010502969784580055e+06
-6.033189006309839897e+00 6.819193122213170389e+37 1.010535662971550017e+06
-6.011407763493480161e+00 6.925428146832999725e+37 1.010568445173969958e+06
-5.989385331151424907e+00 7.030234086751509901e+37 1.010601385743799969e+06
-5.967129682583617978e+00 7.133448270216589918e+37 1.010634454687500023e+06
-5.944581423391355202e+00 7.235178948279080271e+37 1.010667729826780036e+06
-5.921748190041398630e+00 7.335339797506180125e+37 1.010701181817700039e+06
-5.898619937448529527e+00 7.433861382290280298e+37 1.010734808677050052e+06
-5.875232357560889795e+00 7.530446274906160125e+37 1.010768552831770037e+06
-5.851581410592189059e+00 7.625025680604340157e+37 1.010802389180319966e+06
-5.827607657512999140e+00 7.717751985557340373e+37 1.010836392199079972e+06
-5.803309231167077087e+00 7.808542012403010244e+37 1.010870544413840049e+06
-5.778617968215257861e+00 7.897573662801270397e+37 1.010904931153959944e+06
-5.753529147565132007e+00 7.984803556843919730e+37 1.010939531163819949e+06
-5.728106239927001297e+00 8.069884740461879547e+37 1.010974234308760031e+06
-5.702318033130723052e+00 8.152836936330369688e+37 1.011009064487440046e+06
-5.676148045895388350e+00 8.233715771046949945e+37 1.011044020313129993e+06
-5.649518671183614060e+00 8.312657620800529673e+37 1.011079180804740055e+06
-5.622410210737143643e+00 8.389629345033309564e+37 1.011114545470610028e+06
-5.594896586393588223e+00 8.464422710032470124e+37 1.011149992593770032e+06
-5.566941414683242328e+00 8.537052604242770061e+37 1.011185545270659961e+06
-5.538510792961460538e+00 8.607594646585340160e+37 1.011221220120729995e+06
-5.509507067312370054e+00 8.676252369581469516e+37 1.011257109043719945e+06
-5.480034874519333243e+00 8.742780366580519315e+37 1.011293053513710038e+06
-5.450082200986798853e+00 8.807219998868069731e+37 1.011329042552380008e+06
-5.419538082409417257e+00 8.869733913193749308e+37 1.011365178675179952e+06
-5.388400155265117064e+00 8.930352165269750264e+37 1.011401431847290020e+06
-5.356759557471377775e+00 8.988980063694919440e+37 1.011437667349520023e+06
-5.324484754062723368e+00 9.045829036444580483e+37 1.011474005395310000e+06
-5.291555238029104657e+00 9.100984273072249943e+37 1.011510434962600004e+06
-5.258066996553679928e+00 9.154375343555730715e+37 1.011546820338129997e+06
-5.223866051208460703e+00 9.206241642709839985e+37 1.011583297433770029e+06
-5.189005837222794071e+00 9.256624862283649940e+37 1.011619776818510029e+06
-5.153484744616434909e+00 9.305578879796450864e+37 1.011656231936100055e+06
-5.117174690574756823e+00 9.353356921122479742e+37 1.011692762745280052e+06
-5.080191789325908758e+00 9.399986183157220125e+37 1.011729224119030056e+06
-5.042388059417135082e+00 9.445681051193760596e+37 1.011765735030959942e+06
-5.003872059314744547e+00 9.490518143993610225e+37 1.011802166923510027e+06
-4.964479159956681542e+00 9.534756631834290332e+37 1.011838652190160006e+06
-4.924316431890474632e+00 9.578511536079280832e+37 1.011875071791250026e+06
-4.883250039085396565e+00 9.622017410953689514e+37 1.011911531053790008e+06
-4.841374588679173030e+00 9.665446399152769796e+37 1.011947933994289953e+06
-4.798516842842218466e+00 9.709050396805379983e+37 1.011984423498810036e+06
-4.754801595277967863e+00 9.753037196663009301e+37 1.012020890306510031e+06
-4.710110739353694953e+00 9.797610943494320788e+37 1.012057439012230025e+06
-4.664454365745768882e+00 9.843108711650960275e+37 1.012094070133680012e+06
-4.617835953074973077e+00 9.889702300871829194e+37 1.012130800122709945e+06
-4.570143875549547374e+00 9.937681570883699058e+37 1.012167744350349996e+06
-4.521416163115645759e+00 9.987357298408449810e+37 1.012204907771660015e+06
-4.471648010992794298e+00 1.003893244861170019e+38 1.012242341489430051e+06
-4.420758190070046112e+00 1.009271751768040082e+38 1.012280164284599945e+06
-4.368718730460386723e+00 1.014907744897359956e+38 1.012318463456630008e+06
-4.315588728844886646e+00 1.020818969482759954e+38 1.012357277098929975e+06
-4.261303083752864040e+00 1.027039191413999986e+38 1.012396744963919977e+06
-4.205802215597941540e+00 1.033595942270199935e+38 1.012437017619790044e+06
-4.149019119562581182e+00 1.040525940148010017e+38 1.012478262511119945e+06
-4.091099790515727364e+00 1.047836290751930050e+38 1.012520508212369983e+06
-4.031889604622847401e+00 1.055565427885770013e+38 1.012564015371010057e+06
-3.971313810223364271e+00 1.063746603885730077e+38 1.012609001700649969e+06
-3.909471982973627746e+00 1.072389726274110054e+38 1.012655569009179948e+06
-3.846358675218652934e+00 1.081509078926090031e+38 1.012703910196230048e+06
-3.781864938355283812e+00 1.091132153760780032e+38 1.012754312422389979e+06
-3.716003553214250132e+00 1.101271757986989919e+38 1.012806981932480005e+06
-3.648845745425205678e+00 1.111925882513099920e+38 1.012862083066669991e+06
-3.580239428280037828e+00 1.123116184837560012e+38 1.012919987477150047e+06
-3.510317513020709157e+00 1.134828067831140030e+38 1.012980826753759990e+06
-3.439001612918218598e+00 1.147063392155469993e+38 1.013044922962839948e+06
-3.366216553942649625e+00 1.159825698781030027e+38 1.013112610180370044e+06
-3.292156542316661216e+00 1.173073057307420090e+38 1.013183969794410048e+06
-3.216534637293079868e+00 1.186822573212639930e+38 1.013259559223350021e+06
-3.139657046369393356e+00 1.201010273895999987e+38 1.013339340755969984e+06
-3.061263578827492893e+00 1.215635601009729996e+38 1.013423866351729957e+06
-2.981615278840763494e+00 1.230629194902309955e+38 1.013513121401709970e+06
-2.900461090757744387e+00 1.245980250064120068e+38 1.013607666108479956e+06
-2.818035214833798818e+00 1.261613207716559972e+38 1.013707489862830029e+06
-2.734193595024407841e+00 1.277491661081010013e+38 1.013813030337749980e+06
-2.649038608855335042e+00 1.293548859278119965e+38 1.013924409506179974e+06
-2.562564327177824453e+00 1.309723346871319976e+38 1.014041874957249966e+06
-2.474636323808226734e+00 1.325972892157709946e+38 1.014165849925489980e+06
-2.385506013059057295e+00 1.342199763104509966e+38 1.014296190536570037e+06
-2.295082942029694095e+00 1.358342188178910024e+38 1.014433224099079962e+06
-2.203282410569954664e+00 1.374346463153030042e+38 1.014577267189219943e+06
-2.110346398112596944e+00 1.390114268371370010e+38 1.014728089665279957e+06
-2.016250154352746904e+00 1.405573475473140041e+38 1.014885848627679981e+06
-1.920971707455464639e+00 1.420661167007270077e+38 1.015050674585680012e+06
-1.824562374691595323e+00 1.435306984331860030e+38 1.015222539168399991e+06
-1.727232822959194891e+00 1.449425155436009990e+38 1.015401073972980026e+06
-1.629086939632543363e+00 1.462943395872239995e+38 1.015586036140050041e+06
-1.529973206372233108e+00 1.475818714851519938e+38 1.015777644832610036e+06
