# time (s)    L (erg/s)   R_phot (cm)
1.000000000000000048E-04  1.60000007199397E+34  1.00780134649728E+06
2.990000000000000036E-04  1.60000021468401E+34  1.00780134635986E+06
6.950100000000000288E-04  1.60000049859868E+34  1.00780134608641E+06
1.483069900000000144E-03  1.60000106707168E+34  1.00780134554226E+06
3.051309101000000343E-03  1.60000219392430E+34  1.00780134445947E+06
6.172105110990000823E-03  1.60000443991268E+34  1.00780134230495E+06
1.238248917087010278E-02  1.60000891329346E+34  1.00780133801853E+06
2.474115345003150349E-02  1.60001783163353E+34  1.00780132949296E+06
4.933489536556269484E-02  1.60003562461175E+34  1.00780131254604E+06
9.827644177746976129E-02  1.60007076310960E+34  1.00780127890663E+06
1.956701191371648108E-01  1.60013258180860E+34  1.00780121236591E+06
3.894835370829580201E-01  1.60015651497845E+34  1.00780108192537E+06
7.751722387950864546E-01  1.59952999696172E+34  1.00780083221631E+06
1.539377988058623359E+00  1.59587661637331E+34  1.00780038326989E+06
2.380175104620024573E+00  1.59003684549191E+34  1.00779994655038E+06
3.314797879095806810E+00  1.58250104132061E+34  1.00779952612271E+06
4.357938096069955414E+00  1.57373866222769E+34  1.00779912508876E+06
5.525412299609686606E+00  1.56411504988418E+34  1.00779874098613E+06
6.838197240006715916E+00  1.55388750090789E+34  1.00779836239047E+06
8.324921342313043482E+00  1.54326707208854E+34  1.00779796392614E+06
1.002533097935686790E+01  1.53250777772401E+34  1.00779749971280E+06
1.199792835755662779E+01  1.52199120952877E+34  1.00779689080450E+06
1.427743883638803268E+01  1.51266050450844E+34  1.00779602022427E+06
1.686405648138093838E+01  1.50588604633563E+34  1.00779474702950E+06
1.939367105276717496E+01  1.50307874739926E+34  1.00779318411143E+06
2.202236720892887334E+01  1.50379461384526E+34  1.00779123876844E+06
2.482332746391771039E+01  1.50789428380893E+34  1.00778885388596E+06
2.795062266402469220E+01  1.51531714099869E+34  1.00778591229521E+06
3.158224710947649427E+01  1.52610009512584E+34  1.00778227722280E+06
3.610848728909011385E+01  1.54051466036381E+34  1.00777764406709E+06
4.171805180921172962E+01  1.55757511843051E+34  1.00777201046363E+06
4.880484318800505861E+01  1.57613303719148E+34  1.00776530565346E+06
5.856784432281767039E+01  1.59581951610326E+34  1.00775696140544E+06
7.246626397276860132E+01  1.61541351545408E+34  1.00774665845465E+06
8.948171496331774222E+01  1.63233691165399E+34  1.00773590387897E+06
1.086303806364286970E+02  1.64685120991528E+34  1.00772554258657E+06
1.302844217462808274E+02  1.66055137607052E+34  1.00771541106194E+06
1.546727218480225474E+02  1.67440095446346E+34  1.00770546043014E+06
1.820551684823970504E+02  1.68909008352626E+34  1.00769564685695E+06
1.851212883674108411E+02  1.68984484226687E+34  1.00780961868341E+06
1.868568582910857572E+02  1.68573444425847E+34  1.00780886379180E+06
1.903106424391988298E+02  1.67435454203715E+34  1.00780710366757E+06
1.971836728939438217E+02  1.65522361019186E+34  1.00780236795667E+06
2.084365362444391394E+02  1.64088814136742E+34  1.00779339236985E+06
2.243245564872372313E+02  1.64098987149953E+34  1.00778062987713E+06
2.393957081351987313E+02  1.64949289586796E+34  1.00776940580626E+06
2.563045132657543377E+02  1.66169881493080E+34  1.00775803502367E+06
2.746790407369055629E+02  1.67475403899594E+34  1.00774706803757E+06
2.949699096574545365E+02  1.68788433135520E+34  1.00773638770773E+06
3.175161377534047347E+02  1.70109326141901E+34  1.00772593043339E+06
3.426352968795384868E+02  1.71456737689209E+34  1.00771565541086E+06
3.706643521703512079E+02  1.72863147019512E+34  1.00770552150576E+06
3.737939944870354338E+02  1.71954699240212E+34  1.00782276217474E+06
3.754378339132039173E+02  1.71487224432663E+34  1.00782219679566E+06
3.787090743712792005E+02  1.70128623058401E+34  1.00782070501886E+06
3.852188428828490032E+02  1.67881656298944E+34  1.00781627281926E+06
3.960115994529924706E+02  1.66257318041021E+34  1.00780747709749E+06
4.109223744072910449E+02  1.66223974400976E+34  1.00779513952692E+06
4.253556033249686266E+02  1.67134571126129E+34  1.00778397147731E+06
4.415146950239380885E+02  1.68392833218655E+34  1.00777262248125E+06
4.595115643730699162E+02  1.69734896919398E+34  1.00776135957934E+06
4.793219036023102717E+02  1.71045153476466E+34  1.00775040310760E+06
5.013183269830284416E+02  1.72333111012353E+34  1.00773966574152E+06
5.258115696747042875E+02  1.73624020741327E+34  1.00772910296049E+06
5.531193715068799293E+02  1.74954617869621E+34  1.00771867707119E+06
5.561660937231282560E+02  1.74116468318550E+34  1.00783647370825E+06
5.578615798682253626E+02  1.73486841614047E+34  1.00783589750277E+06
5.612355972969687627E+02  1.71823866581104E+34  1.00783422898625E+06
5.679498919801679904E+02  1.69370803444404E+34  1.00782922956169E+06
5.799200237625092313E+02  1.67864849090922E+34  1.00781878059431E+06
5.929017211846937698E+02  1.67998507914298E+34  1.00780762077250E+06
6.064412940117779272E+02  1.68919765315587E+34  1.00779675597528E+06
6.217249744461541923E+02  1.70123497501046E+34  1.00778562617461E+06
6.394000279025384543E+02  1.71436764854125E+34  1.00777414048000E+06
6.588519771407342205E+02  1.72713593540512E+34  1.00776295813831E+06
6.804453191478247618E+02  1.73956868822914E+34  1.00775199536861E+06
7.044891563257230018E+02  1.75200570117950E+34  1.00774119669687E+06
7.312819401298526145E+02  1.76470958782008E+34  1.00773052993351E+06
7.342693334737776922E+02  1.75326508159605E+34  1.00784901451164E+06
7.360071129123455194E+02  1.74725117844254E+34  1.00784843627246E+06
7.394652939950954078E+02  1.72865718472712E+34  1.00784661233087E+06
7.463470743497676949E+02  1.70316817811184E+34  1.00784111894125E+06
7.592179179750233970E+02  1.68994641700945E+34  1.00782929855271E+06
7.716182063387459493E+02  1.69260794684804E+34  1.00781833033805E+06
7.849582668137308019E+02  1.70225404302223E+34  1.00780740080157E+06
8.004195716596499324E+02  1.71464342709664E+34  1.00779594310255E+06
8.180581058970940376E+02  1.72764199295660E+34  1.00778430947594E+06
8.374898720568588715E+02  1.74006290459334E+34  1.00777297805187E+06
8.590817410484430638E+02  1.75232801969424E+34  1.00776183546126E+06
8.831031463325858795E+02  1.76446438341991E+34  1.00775085849254E+06
9.098721862476686510E+02  1.77678629139641E+34  1.00774000779539E+06
9.128572256200553738E+02  2.01147070664022E+34  1.00785999518341E+06
9.145837779275753974E+02  1.99447310621543E+34  1.00785949599121E+06
9.180196170195401919E+02  1.96090888522295E+34  1.00785770736791E+06
9.248569368125500887E+02  1.92809308685754E+34  1.00785210775632E+06
9.368199635326801626E+02  1.92153822953233E+34  1.00784083123666E+06
9.486971867358211057E+02  1.93311301153316E+34  1.00783001070073E+06
9.616214287330881234E+02  1.94988367107350E+34  1.00781909536734E+06
9.768060902523749292E+02  1.96751204210688E+34  1.00780750038376E+06
9.941626437164618437E+02  1.98390263858675E+34  1.00779570097569E+06
1.013281978242141804E+03  1.99871912538864E+34  1.00778418111444E+06
1.034495198091396105E+03  2.01223079415556E+34  1.00777286715048E+06
1.058096822566408264E+03  2.02512223271633E+34  1.00776170830638E+06
1.084383135790250435E+03  2.03779432660954E+34  1.00775068044347E+06
1.113698639778489223E+03  2.05056796614292E+34  1.00773974950383E+06
1.116970076525704826E+03  2.28119509038587E+34  1.00786636014710E+06
1.118486577628098075E+03  2.24969337439945E+34  1.00786629883058E+06
1.121504414821860564E+03  2.19647045505235E+34  1.00786540229088E+06
1.127406061731695445E+03  2.14381097572125E+34  1.00786141166126E+06
1.137509760055551169E+03  2.12871748785126E+34  1.00785246567448E+06
1.149436079081131311E+03  2.14572567757063E+34  1.00784167315133E+06
1.162174748641690485E+03  2.17197082040659E+34  1.00783078602688E+06
1.176886418814385252E+03  2.19848088698460E+34  1.00781929323327E+06
1.193704882368342396E+03  2.22213393856005E+34  1.00780749970722E+06
1.211150053540325189E+03  2.24140475289414E+34  1.00779656489870E+06
1.230493230827603838E+03  2.25814126536552E+34  1.00778571680363E+06
1.253313026508836401E+03  2.27392182209984E+34  1.00777432138186E+06
1.278569720054301115E+03  2.28841193600184E+34  1.00776312723642E+06
1.281386920864461217E+03  2.50476270128891E+34  1.00788252030519E+06
1.283017133278983010E+03  2.48231920279074E+34  1.00788194420695E+06
1.286261255983881256E+03  2.43523159989000E+34  1.00787996253075E+06
1.292717060166628698E+03  2.39316709294845E+34  1.00787404195419E+06
1.302394043836073251E+03  2.39107205271790E+34  1.00786412212796E+06
1.312663539519712458E+03  2.41098716462127E+34  1.00785393212979E+06
1.324352529737408076E+03  2.43674008500618E+34  1.00784317976747E+06
1.338320636868942756E+03  2.46249667329452E+34  1.00783154984788E+06
1.353414132816012852E+03  2.48433871435262E+34  1.00782030543420E+06
1.369449322427404240E+03  2.50231313647962E+34  1.00780961030145E+06
1.387000657934675019E+03  2.51772464611279E+34  1.00779911494888E+06
1.406975146484355719E+03  2.53187584400814E+34  1.00778841480751E+06
1.431038907561105134E+03  2.54587760501293E+34  1.00777693553746E+06
1.457665422441086548E+03  2.55932492468645E+34  1.00776565628497E+06
1.460637893881546233E+03  2.78067656993243E+34  1.00788945915054E+06
1.462353228422973643E+03  2.74339931061130E+34  1.00788916382633E+06
1.465766744160414191E+03  2.67556700630520E+34  1.00788743124568E+06
1.472559640477920993E+03  2.61848917116563E+34  1.00788147606680E+06
1.483113330044299119E+03  2.61658864289392E+34  1.00787084920261E+06
1.494266213669280660E+03  2.64393737390104E+34  1.00785998720088E+06
1.506974915665027765E+03  2.67760874794780E+34  1.00784856707229E+06
1.520709763904419788E+03  2.70800576736360E+34  1.00783739686243E+06
1.535302099764595368E+03  2.73299531410328E+34  1.00782670695153E+06
1.551047147584097502E+03  2.75366308587464E+34  1.00781631241895E+06
1.568577371703159088E+03  2.77140009109642E+34  1.00780588997063E+06
1.589544002584416830E+03  2.78785203766846E+34  1.00779472285456E+06
1.613890822071073217E+03  2.80318465010127E+34  1.00778318757651E+06
1.640924337638329689E+03  2.81746713562264E+34  1.00777180043430E+06
1.643941174555043972E+03  3.03760464037824E+34  1.00789765239124E+06
1.645614764013407921E+03  2.99445773548131E+34  1.00789750276839E+06
1.648945207035552357E+03  2.91593029964382E+34  1.00789597440662E+06
1.655572788649619497E+03  2.84777424544494E+34  1.00789025327200E+06
1.665745727487588738E+03  2.84242813260605E+34  1.00787995209374E+06
1.676536692917338996E+03  2.87232086360839E+34  1.00786928944659E+06
1.689091856190453655E+03  2.91106725875086E+34  1.00785780792808E+06
1.701984544855117292E+03  2.94538270403151E+34  1.00784710177484E+06
1.715536456845899465E+03  2.97349119583550E+34  1.00783689997226E+06
1.730121630243789468E+03  2.99669240550730E+34  1.00782694249195E+06
1.746430649688015592E+03  3.01661118821129E+34  1.00781685745227E+06
1.766029921621840685E+03  3.03489932947116E+34  1.00780594768514E+06
1.789640406288035820E+03  3.05195478712110E+34  1.00779423475464E+06
1.815761704960823636E+03  3.06750700093323E+34  1.00778271486094E+06
1.818676530970724116E+03  3.27938963134381E+34  1.00790766390220E+06
1.820447878606461927E+03  3.23428183581182E+34  1.00790738705893E+06
1.823972860401580419E+03  3.15297227011672E+34  1.00790543368052E+06
1.830987574173866051E+03  3.08775243995326E+34  1.00789883697761E+06
1.840534553328944867E+03  3.08689400774894E+34  1.00788878111262E+06
1.851143093979211017E+03  3.11877856544329E+34  1.00787799162337E+06
1.862663444332278914E+03  3.15702442554767E+34  1.00786718014650E+06
1.874285364247367397E+03  3.19054314325079E+34  1.00785722290820E+06
1.886890521401882552E+03  3.21923981070905E+34  1.00784738009193E+06
1.900460614052536812E+03  3.24337306666034E+34  1.00783773446663E+06
1.915622400862752784E+03  3.26418807315512E+34  1.00782793670719E+06
1.933638647956789555E+03  3.28320365678660E+34  1.00781740842350E+06
1.956461721006935022E+03  3.30114879496369E+34  1.00780550458539E+06
1.981606373236459831E+03  3.31771319871578E+34  1.00779384844245E+06
2.009659099028496030E+03  3.33265697133189E+34  1.00778226799068E+06
2.012788717571471580E+03  3.55003807411568E+34  1.00791269196141E+06
2.014379655557832393E+03  3.49600078857466E+34  1.00791284747741E+06
2.017545622150690406E+03  3.39710151195518E+34  1.00791177154092E+06
2.023721155610017831E+03  3.30641055078363E+34  1.00790673005423E+06
2.034082390614262067E+03  3.29263543645543E+34  1.00789617279845E+06
2.045266018605017507E+03  3.32946962035627E+34  1.00788495062054E+06
2.056506602788518194E+03  3.37385756483140E+34  1.00787448097849E+06
2.067561060246353463E+03  3.41289659990163E+34  1.00786500553436E+06
2.079316166212548524E+03  3.44635180365625E+34  1.00785574476303E+06
2.092354069086735763E+03  3.47547420324034E+34  1.00784633129468E+06
2.107485533628008397E+03  3.50128799455634E+34  1.00783637317825E+06
2.126548319777377401E+03  3.52514785870108E+34  1.00782506830910E+06
2.149129015684128717E+03  3.54658270613994E+34  1.00781313377291E+06
2.174124160922138799E+03  3.56515703226510E+34  1.00780138524333E+06
2.201998887487084630E+03  3.58162890755242E+34  1.00778970860077E+06
2.205107587679229255E+03  3.79508710070028E+34  1.00792078220882E+06
2.206714826390740654E+03  3.73773429050601E+34  1.00792097410132E+06
2.209913231426648508E+03  3.63310878578122E+34  1.00791985124867E+06
2.216162649468208201E+03  3.53851831481515E+34  1.00791459341120E+06
2.226103488344826474E+03  3.52441586203574E+34  1.00790427715734E+06
2.236561927269957778E+03  3.56062413352709E+34  1.00789357887686E+06
2.246954842228732559E+03  3.60496714552191E+34  1.00788366339358E+06
2.257346389420763899E+03  3.64539125012813E+34  1.00787449598917E+06
2.268771177956627071E+03  3.68172152344458E+34  1.00786521293422E+06
2.281315523531712188E+03  3.71334009254914E+34  1.00785586695827E+06
2.295623422795815259E+03  3.74126069851962E+34  1.00784612671497E+06
2.313529696938601319E+03  3.76697299414148E+34  1.00783510376408E+06
2.335534023776606773E+03  3.79039840545748E+34  1.00782301420544E+06
2.359810346173419930E+03  3.81076667894885E+34  1.00781115293419E+06
2.362516895973853025E+03  3.99581631101419E+34  1.00793468164266E+06
2.363931231340036902E+03  3.96119530756424E+34  1.00793431620726E+06
2.366745758718742309E+03  3.89008934014556E+34  1.00793255580759E+06
2.372346668202366345E+03  3.81992672278901E+34  1.00792687833178E+06
2.380406398561616243E+03  3.80719624621202E+34  1.00791760541740E+06
2.389380919179722696E+03  3.83331344386711E+34  1.00790753284819E+06
2.398304705018442746E+03  3.86849129380712E+34  1.00789818321977E+06
2.407792743435970351E+03  3.90348902951041E+34  1.00788900226001E+06
2.417827975698307000E+03  3.93495290761979E+34  1.00788006895361E+06
2.428617844867617805E+03  3.96259634398522E+34  1.00787123702988E+06
2.440504395877497700E+03  3.98704566158767E+34  1.00786230031636E+06
2.454117969959567745E+03  4.00912686172765E+34  1.00785293317001E+06
2.470666708749358349E+03  4.02989781079949E+34  1.00784258813549E+06
2.492624628351573392E+03  4.05016274071667E+34  1.00783031541698E+06
2.516715440751270762E+03  4.06891381202742E+34  1.00781835638504E+06
2.543598275448153800E+03  4.08534099150424E+34  1.00780647061555E+06
2.546595816669998840E+03  4.28902001254343E+34  1.00793742970043E+06
2.548278176930983136E+03  4.22639246505356E+34  1.00793757341665E+06
2.551626073850341982E+03  4.11503744509423E+34  1.00793608771828E+06
2.558288388719866361E+03  4.02052334536214E+34  1.00792986107794E+06
2.568069079190582215E+03  4.01253589961110E+34  1.00791916949175E+06
2.577011736175503302E+03  4.04601765127500E+34  1.00790966800035E+06
2.586304273428373563E+03  4.08842052226785E+34  1.00790039740314E+06
2.596160284016114474E+03  4.12998639099392E+34  1.00789129079678E+06
2.606745390710186257E+03  4.16754934812102E+34  1.00788227214263E+06
2.618556953081179927E+03  4.20128449025468E+34  1.00787302018779E+06
2.632495569197578334E+03  4.23218621796239E+34  1.00786304371743E+06
2.651056416856396027E+03  4.26169425566148E+34  1.00785109375120E+06
2.672399998791373491E+03  4.28800061033093E+34  1.00783886550582E+06
2.696065963892061063E+03  4.31005738364421E+34  1.00782680785041E+06
2.722434101921340698E+03  4.32898392011688E+34  1.00781483464754E+06
2.725372757166909196E+03  4.52683678841680E+34  1.00794544865967E+06
2.727111306388845151E+03  4.46173931146520E+34  1.00794553164913E+06
2.730571019340497969E+03  4.34865557215439E+34  1.00794378372239E+06
2.737455848114286709E+03  4.25783261339005E+34  1.00793700827166E+06
2.746212479376458305E+03  4.25167060450530E+34  1.00792722194950E+06
2.754587728015120319E+03  4.28302308849258E+34  1.00791811258779E+06
2.762840603943373026E+03  4.32209252183417E+34  1.00790964257198E+06
2.771694280999562125E+03  4.36199922078269E+34  1.00790115903185E+06
2.781503962066705299E+03  4.40007571412994E+34  1.00789244992429E+06
2.792327720249946196E+03  4.43468086748953E+34  1.00788358606361E+06
2.804744874768687168E+03  4.46613034455810E+34  1.00787424647017E+06
2.820118775411914612E+03  4.49568686041405E+34  1.00786372259415E+06
2.840563515117228235E+03  4.52407687369402E+34  1.00785119952128E+06
2.862955901312951028E+03  4.54896065596047E+34  1.00783901947006E+06
2.887920172430823186E+03  4.56974149679206E+34  1.00782692760157E+06
2.915730273042175213E+03  4.58811134337902E+34  1.00781490604026E+06
2.918829984888638137E+03  4.78566962214847E+34  1.00794997090855E+06
2.920446186634208061E+03  4.71375822972415E+34  1.00795040238926E+06
2.923662428107891628E+03  4.58658167806696E+34  1.00794933814583E+06
2.929862826135760770E+03  4.47567729478579E+34  1.00794384476541E+06
2.938711813731051279E+03  4.45659490876835E+34  1.00793419588593E+06
2.946957371179898018E+03  4.48742940952949E+34  1.00792526795029E+06
2.955205250626818724E+03  4.53037683213219E+34  1.00791677293940E+06
2.964023814461734673E+03  4.57558164841786E+34  1.00790826356586E+06
2.973866394477310678E+03  4.61938378524689E+34  1.00789945119006E+06
2.985042121331779981E+03  4.66022743064165E+34  1.00789022540122E+06
2.998519569619387767E+03  4.69868889034256E+34  1.00788004907457E+06
3.017298575516950223E+03  4.73655499997722E+34  1.00786733082503E+06
3.037846655167792051E+03  4.76915912278832E+34  1.00785497490044E+06
3.060718721643478602E+03  4.79561427848630E+34  1.00784273748094E+06
3.086174078567536071E+03  4.81798076973626E+34  1.00783059571295E+06
3.089009468950257542E+03  5.00386651583189E+34  1.00796072792455E+06
3.090615570753160227E+03  4.94303521225746E+34  1.00796074995900E+06
3.093811713340936876E+03  4.83423928995706E+34  1.00795901844677E+06
3.100172037090612321E+03  4.74225135904869E+34  1.00795249703320E+06
3.107598415933590786E+03  4.72953760190453E+34  1.00794386319033E+06
3.114906306285622122E+03  4.75450957000430E+34  1.00793548485731E+06
3.122487510313972052E+03  4.79113676808439E+34  1.00792723702025E+06
3.130467015823914608E+03  4.83030836387195E+34  1.00791909946280E+06
3.139086441026189732E+03  4.86824986861609E+34  1.00791091288743E+06
3.148578717046987094E+03  4.90367112210431E+34  1.00790255056992E+06
3.159409204820823106E+03  4.93675587244934E+34  1.00789373781221E+06
3.172284729935539417E+03  4.96796985282611E+34  1.00788412656660E+06
3.189178967090596871E+03  4.99856557866724E+34  1.00787270960990E+06
3.210010632539744165E+03  5.02694698461568E+34  1.00786016082496E+06
3.232985955232129982E+03  5.05166911358612E+34  1.00784785819534E+06
3.258585127554621977E+03  5.07272360760484E+34  1.00783564024938E+06
3.287100689187670014E+03  5.09166337850508E+34  1.00782347911632E+06
3.290278049232258581E+03  5.27845503686748E+34  1.00796214404894E+06
3.291856653913544960E+03  5.19757492184727E+34  1.00796280519040E+06
3.294998077229304272E+03  5.05662180556008E+34  1.00796203329099E+06
3.300836388310660823E+03  4.93420754480245E+34  1.00795706936328E+06
3.308987951621272259E+03  4.90653299157885E+34  1.00794818874464E+06
3.316736437481914436E+03  4.93462815832660E+34  1.00793965756774E+06
