# time (s)    L (erg/s)   R_phot (cm)
1.000000000000000048E-04  8.00000189377932E+34  1.00795756493860E+06
2.990000000000000036E-04  8.00000565651087E+34  1.00795756370749E+06
6.950100000000000288E-04  8.00001315678540E+34  1.00795756125743E+06
1.483069900000000144E-03  8.00002806721033E+34  1.00795755638085E+06
3.051309101000000343E-03  8.00005776601209E+34  1.00795754667265E+06
6.172105110990000823E-03  8.00011692529277E+34  1.00795752733847E+06
1.238248917087010278E-02  8.00023491930276E+34  1.00795748880696E+06
2.474115345003150349E-02  8.00047059615795E+34  1.00795741190977E+06
4.933489536556269484E-02  8.00094245439097E+34  1.00795725805372E+06
9.827644177746976129E-02  8.00188047210667E+34  1.00795694887033E+06
1.956701191371648108E-01  8.00365274998811E+34  1.00795632346875E+06
3.894835370829580201E-01  8.00659193944336E+34  1.00795504900357E+06
7.751722387950864546E-01  8.01115612835659E+34  1.00795244006026E+06
1.542692755202222044E+00  8.02054564731400E+34  1.00794711816017E+06
3.032794066880287076E+00  8.04301580338962E+34  1.00793678928905E+06
5.530029084945487838E+00  8.08278500428351E+34  1.00792056736583E+06
8.075227896269563388E+00  8.12116686416711E+34  1.00790585068648E+06
1.082699643305499215E+01  8.15903986271491E+34  1.00789183565780E+06
1.383490429068060834E+01  8.19637447339148E+34  1.00787839987483E+06
1.714610039832607313E+01  8.23318122499310E+34  1.00786543907882E+06
2.080446496368973897E+01  8.26941418592473E+34  1.00785288621417E+06
2.485616238541624057E+01  8.30506941603979E+34  1.00784068690565E+06
2.935126144736603138E+01  8.34021879789534E+34  1.00782879373331E+06
3.434464506892463476E+01  8.37498308908190E+34  1.00781716778207E+06
3.989801755364669589E+01  8.40953151182426E+34  1.00780577188751E+06
4.608003451301625120E+01  8.36986423149972E+34  1.00792163759516E+06
4.917599526682638356E+01  8.37631466603918E+34  1.00790832902931E+06
5.258649848976109809E+01  8.38814672584342E+34  1.00789441119631E+06
5.612291277283448920E+01  8.40667707770795E+34  1.00788123471903E+06
5.992501204734247722E+01  8.43059546948933E+34  1.00786846953041E+06
6.406767355985564905E+01  8.45789369875043E+34  1.00785601885425E+06
6.861409858504536885E+01  8.48694861344278E+34  1.00784383288262E+06
7.362594535815873087E+01  8.51671521646198E+34  1.00783187991912E+06
7.916872334680029155E+01  8.57598193867939E+34  1.00794225005001E+06
8.163422756251378587E+01  8.55777072964716E+34  1.00793020341275E+06
8.479512938081059303E+01  8.55085036859672E+34  1.00791568161660E+06
8.807122238710023510E+01  8.55572634542012E+34  1.00790208330366E+06
9.161292451748306576E+01  8.56878152323916E+34  1.00788892712509E+06
9.548482907160899913E+01  8.58705963142291E+34  1.00787610719964E+06
9.974340128619266466E+01  8.60840480814055E+34  1.00786356249743E+06
1.044442834692721789E+02  8.63138459600336E+34  1.00785125181104E+06
1.096460982966782467E+02  8.65520838435237E+34  1.00783914598756E+06
1.154138782490383051E+02  8.64779544749474E+34  1.00795193001851E+06
1.181190225857370422E+02  8.63018810275110E+34  1.00793908084816E+06
1.213553790099360299E+02  8.62390758465894E+34  1.00792457916538E+06
1.247073966068480217E+02  8.62978597354584E+34  1.00791097213626E+06
1.283265739797809886E+02  8.64416953213083E+34  1.00789780423397E+06
1.322843994381061918E+02  8.66384124526073E+34  1.00788494867322E+06
1.366400197077319376E+02  8.68645906442862E+34  1.00787233593558E+06
1.414498056765897616E+02  8.71049170423191E+34  1.00785992449142E+06
1.467730625025664324E+02  8.73505603118570E+34  1.00784768585818E+06
1.526753054740760263E+02  8.69112201079422E+34  1.00796151708364E+06
1.555007389567056180E+02  8.67217104735304E+34  1.00794825462282E+06
1.587749507046050894E+02  8.66630059559718E+34  1.00793373036061E+06
1.621650167473648310E+02  8.67366854379436E+34  1.00792009198311E+06
1.658238897403373358E+02  8.69010999204985E+34  1.00790689106919E+06
1.698267051586702792E+02  8.71203360233693E+34  1.00789398813058E+06
1.742341087642033983E+02  8.73686578195474E+34  1.00788130847727E+06
1.791034514698335158E+02  8.76293842036977E+34  1.00786880695821E+06
1.844944772677806384E+02  8.78928783149395E+34  1.00785645296456E+06
1.904725498634819871E+02  8.75784675492027E+34  1.00797087720291E+06
1.933622966326970527E+02  8.71852151631387E+34  1.00795736193581E+06
1.966555832544305815E+02  8.71080036023963E+34  1.00794279020057E+06
2.000643692913635903E+02  8.72774836967205E+34  1.00792910130767E+06
2.037421712727746694E+02  8.75821079314605E+34  1.00791585263037E+06
2.077666271038009427E+02  8.79467071984496E+34  1.00790289778835E+06
2.122002839908042517E+02  8.83270334501453E+34  1.00789015357790E+06
2.171010327747698341E+02  8.86993729956835E+34  1.00787757100546E+06
2.225287753501186785E+02  8.90526384524296E+34  1.00786511720650E+06
2.285487772291339468E+02  8.82850391195924E+34  1.00797989538431E+06
2.314709629255319783E+02  8.77083172627617E+34  1.00796622496528E+06
2.347739676785769234E+02  8.75723413129378E+34  1.00795159029173E+06
2.381907442664172834E+02  8.77828774574355E+34  1.00793784376151E+06
2.418761892963553066E+02  8.81805279220665E+34  1.00792454167853E+06
2.459096803613785198E+02  8.86571103592655E+34  1.00791153223044E+06
2.503549989951112877E+02  8.91492845192371E+34  1.00789872675926E+06
2.552707631743526520E+02  8.96237175736516E+34  1.00788607186638E+06
2.607171613502322884E+02  8.94211054952167E+34  1.00799548221623E+06
2.630943095744837024E+02  8.89716914604385E+34  1.00798316771036E+06
2.661917052916371063E+02  8.87762511121748E+34  1.00796809249404E+06
2.693983829108061627E+02  8.89275953590234E+34  1.00795402100169E+06
2.728701851829909515E+02  8.92918859187923E+34  1.00794041432335E+06
2.766743262193418218E+02  8.97587809067501E+34  1.00792714000327E+06
2.808700658966370725E+02  9.02568554898908E+34  1.00791410398787E+06
2.855124744049306855E+02  9.07455620807302E+34  1.00790124580151E+06
2.906580759712700797E+02  9.12044376747593E+34  1.00788852266958E+06
2.963683684071445441E+02  9.03652262963314E+34  1.00800104536645E+06
2.990064827405471988E+02  8.96447828509198E+34  1.00798792832697E+06
3.022015556912810439E+02  8.93317103372924E+34  1.00797291177857E+06
3.055009197420489500E+02  8.94664685384208E+34  1.00795887299931E+06
3.090642044157093551E+02  8.98721857651784E+34  1.00794530095944E+06
3.129656666986624600E+02  9.04108612573230E+34  1.00793204905961E+06
3.172679233746687260E+02  9.09926392613236E+34  1.00791902065257E+06
3.220288120227311879E+02  9.15658724731920E+34  1.00790615246829E+06
3.273070391050300714E+02  9.21040475631347E+34  1.00789339988580E+06
3.331657300401654425E+02  9.09281318471208E+34  1.00800722542402E+06
3.359324810405575477E+02  9.00662783672379E+34  1.00799374784323E+06
3.391770998797337597E+02  8.96925565412602E+34  1.00797876896467E+06
3.425256271171098206E+02  8.98260190849019E+34  1.00796474427515E+06
3.461382636986938337E+02  9.02720354390281E+34  1.00795118277099E+06
3.500926088167206558E+02  9.08769118943301E+34  1.00793793316337E+06
3.544531832741882909E+02  9.15385261918975E+34  1.00792489624970E+06
3.592790958937025039E+02  9.21961198719148E+34  1.00791200789912E+06
3.646304351427334609E+02  9.28167498173399E+34  1.00789922220995E+06
3.705716514608602097E+02  9.14471291140254E+34  1.00801374863599E+06
3.734066337093444758E+02  9.04929148089363E+34  1.00800007382824E+06
3.766776246527225567E+02  9.00691420505760E+34  1.00798509820501E+06
3.800522111659873872E+02  9.01918747133194E+34  1.00797106413703E+06
3.836909223436743446E+02  9.06596448641184E+34  1.00795749097322E+06
3.876731451929326226E+02  9.13102402640035E+34  1.00794422519705E+06
3.920644852368320699E+02  9.20329992696937E+34  1.00793116639786E+06
3.969249610778039710E+02  9.27592653133107E+34  1.00791825000156E+06
4.023159001543322688E+02  9.34512276658117E+34  1.00790542612427E+06
4.083019441089110160E+02  9.19659718344019E+34  1.00802036109447E+06
4.111722018163986831E+02  9.09487391266051E+34  1.00800657293468E+06
4.144571006174066952E+02  9.04813790801903E+34  1.00799158016970E+06
4.178449747822385802E+02  9.05865196125903E+34  1.00797752343068E+06
4.214967814701741986E+02  9.10616941274497E+34  1.00796392641835E+06
4.254928861031336851E+02  9.17411344977558E+34  1.00795063421099E+06
4.298994684360560541E+02  9.25082876343598E+34  1.00793754659676E+06
4.347773384926380231E+02  9.32890617110387E+34  1.00792459683526E+06
4.401883027985454078E+02  9.40403441014535E+34  1.00791173452281E+06
4.461978290755941998E+02  9.24853575088421E+34  1.00802691534205E+06
4.490851560083007143E+02  9.14242888250010E+34  1.00801306213325E+06
4.523775656184674290E+02  9.09197494996223E+34  1.00799803963630E+06
4.557716553810116693E+02  9.10044382282167E+34  1.00798395436202E+06
4.594294788566840566E+02  9.14783123842313E+34  1.00797032698467E+06
4.634316523819629197E+02  9.21748712487886E+34  1.00795700342446E+06
4.678447704901244038E+02  9.29739275854059E+34  1.00794388389232E+06
4.727303746744535715E+02  9.37972332826640E+34  1.00793089948987E+06
4.781506138962908494E+02  9.29731978738506E+34  1.00804034247897E+06
4.804999391474561889E+02  9.23496968322507E+34  1.00802789284537E+06
4.835840508867926815E+02  9.19900250920126E+34  1.00801250390671E+06
4.867710096936853006E+02  9.20854303092364E+34  1.00799814998327E+06
4.902200960681263950E+02  9.25120452023954E+34  1.00798426613895E+06
4.939990395809576285E+02  9.31439505943178E+34  1.00797071890588E+06
4.981685435792366548E+02  9.38820549311379E+34  1.00795740646680E+06
5.027848767347201147E+02  9.46567709521304E+34  1.00794426133693E+06
5.079064450424861548E+02  9.54232402610918E+34  1.00793122788103E+06
5.135956493142267618E+02  9.41588160777916E+34  1.00804393802068E+06
5.161991436015424597E+02  9.32338053839517E+34  1.00803072447234E+06
5.193841776778882604E+02  9.27010085825864E+34  1.00801539983926E+06
5.226653227068446768E+02  9.27133756739714E+34  1.00800108525296E+06
5.262068235693968745E+02  9.31083687896305E+34  1.00798724053676E+06
5.300829685564762030E+02  9.37396959421634E+34  1.00797372082890E+06
5.343576643780232871E+02  9.44957483155413E+34  1.00796042445466E+06
5.390901151046309678E+02  9.52994154506766E+34  1.00794728129669E+06
5.443405499790034128E+02  9.61006786052867E+34  1.00793423716317E+06
5.501735737637748116E+02  9.46345392642802E+34  1.00804834148920E+06
5.529024995447391575E+02  9.35927024150416E+34  1.00803478493325E+06
5.561367882615099916E+02  9.30094277365634E+34  1.00801951330545E+06
5.594665159675815858E+02  9.30059470656271E+34  1.00800522786801E+06
5.630567933256745619E+02  9.34075493629810E+34  1.00799140729599E+06
5.669848661878666007E+02  9.40616210665241E+34  1.00797790281003E+06
5.713160985701218806E+02  9.48524313702633E+34  1.00796461320176E+06
5.761110401351945711E+02  9.56993710720735E+34  1.00795146842761E+06
5.814312728171469189E+02  9.65494116177179E+34  1.00793841360155E+06
5.873425148453081874E+02  9.49857264249052E+34  1.00805322995509E+06
5.901370264599746633E+02  9.38903573298954E+34  1.00803949738995E+06
5.933972389109906089E+02  9.32859251851292E+34  1.00802424942198E+06
5.967529530105656477E+02  9.32770287583373E+34  1.00800997216380E+06
6.003692944794571531E+02  9.36850885980389E+34  1.00799615654174E+06
6.043251514667911124E+02  9.43562321921021E+34  1.00798265163791E+06
6.086867161507020683E+02  9.51737481905234E+34  1.00796935631942E+06
6.135152403800700540E+02  9.60553767900635E+34  1.00795620090175E+06
6.188731211433158705E+02  9.69467464174201E+34  1.00794312941897E+06
6.248266190002485700E+02  9.53325213349684E+34  1.00805834572699E+06
6.276554614990270693E+02  9.42095458856429E+34  1.00804451695115E+06
6.309295392836856990E+02  9.35927881768972E+34  1.00802927151987E+06
6.342989128363377631E+02  9.35787968265128E+34  1.00801498967810E+06
6.379290264794608447E+02  9.39886125491473E+34  1.00800116664032E+06
6.418995386448772251E+02  9.46693340686590E+34  1.00798765022793E+06
6.462768473904089888E+02  9.55041866915000E+34  1.00797434137003E+06
6.511229464203910311E+02  9.64111365158211E+34  1.00796116860162E+06
6.565004379786532809E+02  9.73344308573457E+34  1.00794807682874E+06
6.624762074705444093E+02  9.56928933583492E+34  1.00806353213059E+06
6.653223121528093316E+02  9.45546882993151E+34  1.00804964892235E+06
6.686036871026010431E+02  9.39293566791663E+34  1.00803439392123E+06
6.719799635921692698E+02  9.39102407553434E+34  1.00802009902959E+06
6.756168490327301015E+02  9.43186396517192E+34  1.00800626186146E+06
6.795945937402193522E+02  9.50033855077451E+34  1.00799272859569E+06
6.839796615424825177E+02  9.58490758027834E+34  1.00797940057852E+06
6.888341450683179801E+02  9.67738416450454E+34  1.00796620752389E+06
6.942211656664854900E+02  9.77217234772657E+34  1.00795309307511E+06
7.002078328604192166E+02  9.60647118418945E+34  1.00806870086967E+06
7.030616449814255020E+02  9.49179289609435E+34  1.00805478618167E+06
7.063466289845453048E+02  9.42863130846915E+34  1.00803951458031E+06
7.097259253569783368E+02  9.42619712097093E+34  1.00802520332978E+06
7.133658261665764257E+02  9.46674055805317E+34  1.00801134705311E+06
7.173464181327146889E+02  9.53529669908517E+34  1.00799779454474E+06
7.217346338894335531E+02  9.62048054496775E+34  1.00798444541114E+06
7.265925113580207153E+02  9.71420767508643E+34  1.00797123008336E+06
7.319833328191374449E+02  9.61699803550271E+34  1.00808084712858E+06
7.343071077914155467E+02  9.54950500240337E+34  1.00806832829540E+06
7.373799922783017564E+02  9.50778514979924E+34  1.00805271853776E+06
7.405512918178121708E+02  9.51295637574538E+34  1.00803816429971E+06
7.439825400512330589E+02  9.55336052117087E+34  1.00802408007237E+06
7.477414582698449976E+02  9.61778883823671E+34  1.00801032976212E+06
7.518882276050467226E+02  9.69722455291341E+34  1.00799681360994E+06
7.564794954003315297E+02  9.78492291307413E+34  1.00798346237753E+06
7.615743305000460168E+02  9.87614312964820E+34  1.00797021738683E+06
7.672361490134348969E+02  9.74221172621001E+34  1.00808316682156E+06
7.698078094503695183E+02  9.64646519751488E+34  1.00806991860772E+06
7.729836178134704596E+02  9.58769823175791E+34  1.00805438076261E+06
7.762501214745917650E+02  9.58375891693379E+34  1.00803987503184E+06
7.797749268025144147E+02  9.61947800151403E+34  1.00802583560025E+06
7.836318225439055141E+02  9.68180132995184E+34  1.00801211746630E+06
7.878842874981245359E+02  9.76062318371556E+34  1.00799862083991E+06
7.925916671119366583E+02  9.84859720946941E+34  1.00798527550937E+06
7.978148852254447547E+02  9.94066201349721E+34  1.00797202427496E+06
8.036194346837651210E+02  9.78832560230577E+34  1.00808642960301E+06
8.063148878745487309E+02  9.68115869434538E+34  1.00807284389496E+06
8.095400603533673802E+02  9.61750331002216E+34  1.00805736322849E+06
8.128547408758589654E+02  9.61182552799607E+34  1.00804289221715E+06
8.164278500285396376E+02  9.64753248751283E+34  1.00802888272035E+06
8.203361035724859676E+02  9.71087112812633E+34  1.00801518568076E+06
8.246444421925781398E+02  9.79142529352027E+34  1.00800170125338E+06
8.294133004444694279E+02  9.88167507679005E+34  1.00798836012515E+06
8.347047574518059037E+02  9.97647344435389E+34  1.00797510498418E+06
8.405851582861744191E+02  9.81554933916698E+34  1.00809024085108E+06
8.433447666197001809E+02  9.70356661879905E+34  1.00807648541640E+06
8.465953529760220135E+02  9.63853580593704E+34  1.00806103531561E+06
8.499353661528950852E+02  9.63283391879826E+34  1.00804658096324E+06
8.535340862585443347E+02  9.66927363384981E+34  1.00803258426696E+06
8.574696641976113369E+02  9.73382015773353E+34  1.00801889466480E+06
8.618077733295810958E+02  9.81599136042329E+34  1.00800541260845E+06
8.666095427331102883E+02  9.90828791162022E+34  1.00799206837791E+06
8.719374084631615460E+02  1.00055348580987E+35  1.00797880606900E+06
8.778586128277767102E+02  9.84037461075492E+34  1.00809433652616E+06
8.806517996985597847E+02  9.72621638927952E+34  1.00808049109683E+06
8.839158577221940050E+02  9.66084962081955E+34  1.00806505224090E+06
8.872692775802139522E+02  9.65542216890041E+34  1.00805060214040E+06
8.908816647935077526E+02  9.69247558708461E+34  1.00803660637549E+06
8.948317396411921436E+02  9.75789222185203E+34  1.00802291442980E+06
8.991855881320597064E+02  9.84120784872273E+34  1.00800942695423E+06
9.040046948397144888E+02  9.93497543103365E+34  1.00799607458424E+06
9.093519752646606094E+02  1.00340737302185E+35  1.00798280077057E+06
9.152947942465932556E+02  9.86662185017259E+34  1.00809856207036E+06
9.181051145370744280E+02  9.75144246486044E+34  1.00808466718063E+06
9.213762585415290687E+02  9.68605602551848E+34  1.00806922723961E+06
9.247365128797521265E+02  9.68089605432210E+34  1.00805477344334E+06
9.283558964762759160E+02  9.71835132205385E+34  1.00804077164139E+06
9.323133659257332511E+02  9.78429029811209E+34  1.00802707167400E+06
9.366752609833041561E+02  9.86830784669940E+34  1.00801357407132E+06
9.415032418579827436E+02  9.96307688139985E+34  1.00800020911332E+06
9.468601520542126764E+02  1.00635151018910E+35  1.00798692157769E+06
9.528138821260057512E+02  9.89473849896182E+34  1.00810282621437E+06
9.556323873502529977E+02  9.77900458642120E+34  1.00808890378848E+06
9.589072012699658671E+02  9.71364393816853E+34  1.00807345545428E+06
9.622707073937103814E+02  9.70868622676456E+34  1.00805899293851E+06
9.658933683823646561E+02  9.74638808742154E+34  1.00804498094718E+06
9.698542632130637458E+02  9.81260016489167E+34  1.00803126950710E+06
9.742198610048280898E+02  9.89703734100100E+34  1.00801775844999E+06
9.790517245184568083E+02  9.99244909162156E+34  1.00800437934555E+06
9.844129849602746845E+02  1.00938286245342E+35  1.00799107632226E+06
9.903716075256065778E+02  9.92414153759392E+34  1.00810707796270E+06
9.931932363630920690E+02  9.80814333564574E+34  1.00809313901961E+06
9.964696192716522773E+02  9.74283430542758E+34  1.00807767883016E+06
9.998343138905414662E+02  9.73801348582924E+34  1.00806320506469E+06
1.003458146743421253E+03  9.77585711262913E+34  1.00804918052742E+06
1.007420171875472533E+03  9.84223326424915E+34  1.00803545550843E+06
1.011786899353896274E+03  9.92689121286059E+34  1.00802193030358E+06
1.016620043225022528E+03  1.00227253678884E+35  1.00800853558219E+06
1.021982576642266508E+03  9.91718680647008E+34  1.00811836965691E+06
1.024282550534902839E+03  9.84697826934407E+34  1.00810580948578E+06
1.027344913503844282E+03  9.80303212644952E+34  1.00809002288170E+06
1.030501763866071542E+03  9.80689201769932E+34  1.00807531491233E+06
1.033917323715335897E+03  9.84629553238153E+34  1.00806107447309E+06
1.037658670335743864E+03  9.91024465116340E+34  1.00804716485399E+06
1.041785252186067510E+03  9.99035729886788E+34  1.00803348820249E+06
1.046353728129575984E+03  1.00807218915034E+35  1.00801997426229E+06
1.051423126888754950E+03  1.01772066854126E+35  1.00800656358096E+06
1.057056791485811118E+03  1.02768454311445E+35  1.00799320453401E+06
1.063324124723340219E+03  1.00538585611229E+35  1.00811259050058E+06
1.066437847641739381E+03  9.91041759658051E+34  1.00809781087232E+06
1.069808145122897258E+03  9.83530472109040E+34  1.00808247377214E+06
1.073271221261256869E+03  9.82649858844289E+34  1.00806805323740E+06
1.076994559302905145E+03  9.86307470971315E+34  1.00805407214030E+06
1.081063281551954788E+03  9.92948645933681E+34  1.00804037040587E+06
1.085545929739231497E+03  1.00148391507863E+35  1.00802685283816E+06
1.090506748918895028E+03  1.01117606564020E+35  1.00801345094285E+06
1.096010994011956655E+03  9.99149682827722E+34  1.00812485665711E+06
1.098426470610033448E+03  9.90997391917172E+34  1.00811197998837E+06
1.101543425995487723E+03  9.85981600336876E+34  1.00809623141045E+06
1.104749992460348949E+03  9.86108948446896E+34  1.00808155226254E+06
1.108214739052338700E+03  9.89990308074733E+34  1.00806733559167E+06
1.112007658300539333E+03  9.96439050297197E+34  1.00805344139036E+06
1.116190069603192796E+03  1.00457533657920E+35  1.00803977015746E+06
1.120819684508305045E+03  1.01379337379995E+35  1.00802625218860E+06
