# time luminosity radius
-2.103915659931953996e+01 4.621798132501869691e+35 1.008318735795940040e+06
-1.980189178092405200e+01 4.712247208132759843e+35 1.008319650276020053e+06
-1.836432821629568934e+01 4.833919479138669959e+35 1.008320857944290037e+06
-1.697625638323370367e+01 4.970256894873280368e+35 1.008322351374519989e+06
-1.558368067338597029e+01 5.131082282147859782e+35 1.008324433089819970e+06
-1.417424314300296828e+01 5.328985802570339957e+35 1.008327509547549998e+06
-1.275063512090127915e+01 5.586425436106660078e+35 1.008332272441099980e+06
-1.172926010529045016e+01 5.818885136673089662e+35 1.008337181227199966e+06
-1.102810529927955940e+01 6.011239767087169826e+35 1.008341640368780005e+06
-1.052485663880361244e+01 6.172004692205829998e+35 1.008345645643180003e+06
-1.013990313198883086e+01 6.312042480064170346e+35 1.008349335084290011e+06
-9.814405707991681993e+00 6.445663203877319971e+35 1.008353013809269993e+06
-9.430248864169698209e+00 6.631528842133570032e+35 1.008358353696450009e+06
-9.283309981925413013e+00 6.708037468295870252e+35 1.008360579837159952e+06
-9.144846212060656399e+00 6.784804833385090073e+35 1.008362860089650028e+06
-8.981787046126555651e+00 6.883259219973120593e+35 1.008365846224969951e+06
-8.958609108987729996e+00 6.897393713927280316e+35 1.008366279372390010e+06
-8.912485014123376459e+00 6.926522315585180273e+35 1.008367174642510014e+06
-8.820698065333999693e+00 6.986960082537699897e+35 1.008369092128020013e+06
-8.805020935134962201e+00 6.997384505426220449e+35 1.008369424151399988e+06
-8.773823446070309728e+00 7.018636949413410177e+35 1.008370104398919968e+06
-8.711740442842710763e+00 7.062354112504759457e+35 1.008371534584240057e+06
-8.677473493095021695e+00 7.087409431367829519e+35 1.008372348524839967e+06
-8.651777808961924165e+00 7.106108882581659898e+35 1.008372970385269960e+06
-8.625268802570644766e+00 7.126077823004780348e+35 1.008373622629399993e+06
-8.588577294431161135e+00 7.153406313505140549e+35 1.008374548168609967e+06
-8.515561193227767944e+00 7.211639870059149878e+35 1.008376508926789975e+06
-8.382610168715473264e+00 7.328059346004669962e+35 1.008380591569849988e+06
-8.286391579837072641e+00 7.418617639662519549e+35 1.008383870294749970e+06
-8.200827261083759367e+00 7.504406797588400722e+35 1.008387148655629950e+06
-8.131972937844693661e+00 7.578982739338419878e+35 1.008390055683130049e+06
-8.073075231746770442e+00 7.644980991908560602e+35 1.008392820725749945e+06
-8.034922891994938254e+00 7.689599861952329285e+35 1.008394736761679989e+06
-8.005780637846328318e+00 7.724346995583220141e+35 1.008396294520759955e+06
-7.983176758338231593e+00 7.753918466667040585e+35 1.008397562168280012e+06
-7.964104484650306404e+00 7.777391030511199317e+35 1.008398681499390048e+06
-7.946683244546875358e+00 7.797843164946150069e+35 1.008399748672049958e+06
-7.928252801648341119e+00 7.821684767856329810e+35 1.008400937742869952e+06
-7.901674080931115896e+00 7.857674997092619685e+35 1.008402799124559970e+06
-7.877200265647843480e+00 7.895181989473289984e+35 1.008404659473850043e+06
-7.854385826911311597e+00 7.921119385177289809e+35 1.008406517211270053e+06
-7.839977523195557296e+00 7.943221870874380209e+35 1.008407763967690058e+06
-7.817391135555226356e+00 7.975597862281539751e+35 1.008409950170370052e+06
-7.797248024551663548e+00 8.005819377496270128e+35 1.008412109701970010e+06
-7.778172596357762814e+00 8.033665635557659547e+35 1.008414490958150011e+06
-7.759877594595309347e+00 8.064547815464609379e+35 1.008417205754389986e+06
-7.742032201553229243e+00 8.100491579481320040e+35 1.008420164650939987e+06
-7.725675714784301817e+00 8.121375956349889293e+35 1.008423116214690031e+06
-7.710305810382124037e+00 8.139406511986969574e+35 1.008426048221930047e+06
-7.696826113504357636e+00 8.162652221725340127e+35 1.008428726545989979e+06
-7.689756811654660851e+00 8.177564093386700551e+35 1.008430180021550041e+06
-7.678892984229605645e+00 8.192516568092010132e+35 1.008432431721449946e+06
-7.664962380484212190e+00 8.216642184974829387e+35 1.008435345285139978e+06
-7.650464513571932912e+00 8.239944719351749742e+35 1.008438439593940042e+06
-7.634070510393939912e+00 8.276334103754879302e+35 1.008441966884440044e+06
-7.614852594328112900e+00 8.311397080085280501e+35 1.008446148569489946e+06
-7.594113386003300548e+00 8.356894832029889813e+35 1.008450749358679983e+06
-7.572537830739747733e+00 8.423796813393169716e+35 1.008456012529090047e+06
-7.550086400820873678e+00 8.604532279220039624e+35 1.008461873019039980e+06
-7.527951733674854040e+00 9.035094212761450268e+35 1.008467768541289959e+06
-7.503808080393355340e+00 9.865912819989880246e+35 1.008474393932239967e+06
-7.478204955288674682e+00 1.158139324814789969e+36 1.008481766504350002e+06
-7.453836365952156484e+00 1.493462550404989993e+36 1.008489107613350032e+06
-7.430583625449799001e+00 1.788535489330269899e+36 1.008496345756120048e+06
-7.406286323152016848e+00 2.481545521750530127e+36 1.008504257402349962e+06
-7.383283478906378150e+00 2.735771303544880209e+36 1.008512003919600043e+06
-7.360863111738581210e+00 3.935189644865160055e+36 1.008520012227779953e+06
-7.338712012104224414e+00 4.159496375942010035e+36 1.008528210822939989e+06
-7.316536086320411414e+00 4.458166430882030100e+36 1.008536663372220006e+06
-7.292415454110596329e+00 4.799704125865130147e+36 1.008546269681190024e+06
-7.269105808751191944e+00 5.158320994216990266e+36 1.008555982888699975e+06
-7.246472543978597969e+00 5.724587040070989794e+36 1.008565951263259980e+06
-7.224803125718608499e+00 6.864276963322119796e+36 1.008576286820200039e+06
-7.203782413445878774e+00 7.129620270898429583e+36 1.008586818746360019e+06
-7.183279973280150443e+00 7.466814951989720449e+36 1.008597577327879961e+06
-7.163245209085289389e+00 7.822069993707539865e+36 1.008608554669640027e+06
-7.143522249010857195e+00 8.196944402150399776e+36 1.008619822795849992e+06
-7.124312220897991210e+00 8.587106740997340265e+36 1.008631263385170023e+06
-7.106715400004759431e+00 9.073799175805520104e+36 1.008642289879660006e+06
-7.090508886962197721e+00 9.455021454399189785e+36 1.008652883680460043e+06
-7.075538218021392822e+00 9.815868383615309762e+36 1.008663049322990002e+06
-7.061554881569463760e+00 1.016602684870320036e+37 1.008672877107199980e+06
-7.048361217021010816e+00 1.050593865581870009e+37 1.008682452197480015e+06
-7.035670704324729741e+00 1.084109982701020087e+37 1.008691949066299945e+06
-7.023438201867975295e+00 1.117286580052269967e+37 1.008701379260150017e+06
-7.011343265359755605e+00 1.150837277054870087e+37 1.008710984808680019e+06
-6.999346461321692914e+00 1.184991443610889995e+37 1.008720796440629987e+06
-6.987190047104377300e+00 1.220147240802220109e+37 1.008731036613019998e+06
-6.974666357971727848e+00 1.256893145424169961e+37 1.008741911761919968e+06
-6.961433946737088263e+00 1.296907308935930011e+37 1.008753770387129975e+06
-6.947073982446454465e+00 1.341086220686549893e+37 1.008767086231749970e+06
-6.933774394216015935e+00 1.384074993897559996e+37 1.008779803378729965e+06
-6.921102305524982512e+00 1.424927880909660007e+37 1.008792282016600017e+06
-6.909024063730612397e+00 1.464142732691400027e+37 1.008804508142229985e+06
-6.897431353922002017e+00 1.501860767640189913e+37 1.008816554030330037e+06
-6.886175539868418127e+00 1.538580985672569988e+37 1.008828547836379963e+06
-6.875238742271903902e+00 1.574378261099439942e+37 1.008840485473299981e+06
-6.864403230545576662e+00 1.609887147573200069e+37 1.008852593838330009e+06
-6.853333657549228519e+00 1.646126786110269923e+37 1.008865261468659970e+06
-6.842479777813423425e+00 1.681607235973359971e+37 1.008877982354109990e+06
-6.831685526587534696e+00 1.716592092940410084e+37 1.008890925178440055e+06
-6.821122048364486545e+00 1.750575175873960118e+37 1.008903870683840010e+06
-6.810645509685855359e+00 1.784021540805149953e+37 1.008916986917359987e+06
-6.800164290820248425e+00 1.817162300116609999e+37 1.008930389890730032e+06
-6.789721942797768861e+00 1.849822385383789965e+37 1.008944015542540001e+06
-6.779288678138982505e+00 1.882404501944459897e+37 1.008957898031770019e+06
-6.769077178672887385e+00 1.913180238065639986e+37 1.008971731643939973e+06
-6.759009107656311244e+00 1.943460534902210040e+37 1.008985609901739983e+06
-6.749074713152367622e+00 1.972991376798850097e+37 1.008999533499759971e+06
-6.739101098675746471e+00 2.002156666249580113e+37 1.009013737486880040e+06
-6.729291383642703295e+00 2.030422790256910037e+37 1.009027912671640050e+06
-6.719326242629904300e+00 2.058692377492220064e+37 1.009042524701740011e+06
-6.709400995809119195e+00 2.083952880302139978e+37 1.009057255361009971e+06
-6.699249702098313719e+00 2.110365853540630041e+37 1.009072497743980028e+06
-6.688957828038837761e+00 2.137649950830220176e+37 1.009088119049740024e+06
-6.678494150575716048e+00 2.166860255787119816e+37 1.009104157459820039e+06
-6.667652273084968328e+00 2.193480360341919971e+37 1.009120919952469994e+06
-6.656327977252658457e+00 2.227267184557219827e+37 1.009138574476119946e+06
-6.644687954452820122e+00 2.267792308701169858e+37 1.009156863346409984e+06
-6.632851856818888336e+00 2.318012672385599886e+37 1.009175573769339942e+06
-6.620976054575294256e+00 2.364160737405189887e+37 1.009194434823979973e+06
-6.609037359245121479e+00 2.408954272466040110e+37 1.009213471692639985e+06
-6.597034010628703982e+00 2.456038880534229892e+37 1.009232676240709960e+06
-6.584780065692029893e+00 2.525678460277350122e+37 1.009252343373819953e+06
-6.572803922113962471e+00 2.575838332007499867e+37 1.009271596219049999e+06
-6.561033596633933485e+00 2.630230658908969986e+37 1.009290547428680002e+06
-6.549395946145523340e+00 2.711731504717239953e+37 1.009309298315620050e+06
-6.537941748334560543e+00 2.768892566287539795e+37 1.009327764410890057e+06
-6.526612279878463596e+00 2.832648359284519970e+37 1.009346033075509942e+06
-6.515371674147900194e+00 2.923390281637299830e+37 1.009364157481570030e+06
-6.504208477854263037e+00 2.987614550291459922e+37 1.009382145340280025e+06
-6.493349999131169170e+00 3.062683738288449938e+37 1.009399638567800052e+06
-6.482558432850055397e+00 3.103267427024629824e+37 1.009417000288650044e+06
-6.470156643190421164e+00 3.154573796518110191e+37 1.009436913327169954e+06
-6.455387816647998989e+00 3.235570246143530222e+37 1.009460590740169981e+06
-6.438460566452704370e+00 3.325725839243389893e+37 1.009487621766429977e+06
-6.423028784047346562e+00 3.408376510068200095e+37 1.009512144896210055e+06
-6.408367712749168277e+00 3.487881721755510055e+37 1.009535324853920029e+06
-6.392232129292096943e+00 3.576018427997150034e+37 1.009560709861780051e+06
-6.373501241672784090e+00 3.677662854682200088e+37 1.009590006450510002e+06
-6.352029580913949758e+00 3.796516907960389955e+37 1.009623343333350029e+06
-6.330849461373873055e+00 3.916571960968090209e+37 1.009655964439720032e+06
-6.309797480585984886e+00 4.038290223988249924e+37 1.009688171104750014e+06
-6.288847548130434006e+00 4.161392546220470057e+37 1.009719999196909950e+06
-6.267915729549713433e+00 4.285989139019869919e+37 1.009751578542990028e+06
-6.247035923355724663e+00 4.411458757892209997e+37 1.009782869911339949e+06
-6.226255100453272462e+00 4.537207872018959966e+37 1.009813808970539947e+06
-6.205497354443650693e+00 4.663347559660650053e+37 1.009844516219999990e+06
-6.184753149398602545e+00 4.789636435815110071e+37 1.009875009006330045e+06
-6.163952497649006546e+00 4.916211966752750209e+37 1.009905388027490000e+06
-6.143095744366291910e+00 5.042794898637980309e+37 1.009935649852960021e+06
-6.122242199140600860e+00 5.168771249637260354e+37 1.009965707319349982e+06
-6.101356733997818083e+00 5.294153738124530012e+37 1.009995610100680031e+06
-6.080435387499164790e+00 5.418757314949969918e+37 1.010025362126479973e+06
-6.059417108888737857e+00 5.542776202373399924e+37 1.010055049758229987e+06
-6.038305652327835560e+00 5.666013993387669630e+37 1.010084657531989971e+06
-6.017037878336850554e+00 5.788637986713309981e+37 1.010114259373510024e+06
-5.995644322480075061e+00 5.910329463361610199e+37 1.010143800939479959e+06
-5.974183572456240654e+00 6.030621012099519940e+37 1.010173196644869982e+06
-5.952597326424438506e+00 6.149696942830709963e+37 1.010202521488539991e+06
-5.930886266985908151e+00 6.267410621792019802e+37 1.010231758895120001e+06
-5.908990566327702254e+00 6.383942491137000436e+37 1.010260975576270022e+06
-5.886913734953850508e+00 6.499192307938470299e+37 1.010290156658050022e+06
-5.864590986166149378e+00 6.613341905700920169e+37 1.010319377471350017e+06
-5.842082042421679944e+00 6.725987934937169554e+37 1.010348543966950034e+06
-5.819418597617186606e+00 6.836820027738399589e+37 1.010377601265419973e+06
-5.796539175498764962e+00 6.946034213412930140e+37 1.010406613029959961e+06
-5.773440708289854228e+00 7.053561292807610436e+37 1.010435571436950006e+06
-5.750056483317166567e+00 7.159573656795549880e+37 1.010464547067539999e+06
-5.726383348403032869e+00 7.264013313912119821e+37 1.010493524978820002e+06
-5.702433589554857463e+00 7.366671443625599789e+37 1.010522472608909942e+06
-5.678230996476486325e+00 7.467330696338100379e+37 1.010551344327419996e+06
-5.653760097571648657e+00 7.566002901077670237e+37 1.010580144293510006e+06
-5.628945877251680940e+00 7.662886593200350377e+37 1.010608942022379953e+06
-5.603773179056588560e+00 7.757904002931390084e+37 1.010637736869630055e+06
-5.578225928300525993e+00 7.851086454928729534e+37 1.010666526120380033e+06
-5.552358424582052976e+00 7.942127362572230049e+37 1.010695228059060057e+06
-5.526140221976675093e+00 8.030982825911900148e+37 1.010723856269409996e+06
-5.499483838793821633e+00 8.117891509216649912e+37 1.010752485548540018e+06
-5.472358810307923704e+00 8.202883971448550306e+37 1.010781122179009952e+06
-5.444869422237388790e+00 8.285584643605129820e+37 1.010809635281539988e+06
-5.416940925177186728e+00 8.366138850824310207e+37 1.010838088896309957e+06
-5.388528069597668946e+00 8.444605729170889854e+37 1.010866488617629977e+06
-5.359590477833990008e+00 8.521063994704770010e+37 1.010894854197410052e+06
-5.330203257617540658e+00 8.595253828102980789e+37 1.010923086002149968e+06
-5.300300337199587375e+00 8.667313051377139586e+37 1.010951223723259987e+06
-5.269772535655647516e+00 8.737423038861690888e+37 1.010979339806549950e+06
-5.238759855506941676e+00 8.805319609640099912e+37 1.011007278817710001e+06
-5.207174663024488837e+00 8.871118818825609952e+37 1.011035095350299962e+06
-5.174923667742405087e+00 8.935009783971960635e+37 1.011062841389529989e+06
-5.142115921422373503e+00 8.996858141119660513e+37 1.011090396242339979e+06
-5.108642364502884448e+00 9.056820896118470555e+37 1.011117825465840055e+06
-5.074512210732791573e+00 9.114967648081519828e+37 1.011145093542790040e+06
-5.039704622409772128e+00 9.171364801836619492e+37 1.011172191598540056e+06
-5.004126879211980850e+00 9.226211493680479100e+37 1.011199163879610016e+06
-4.967898606962990016e+00 9.279425846590249884e+37 1.011225896824149997e+06
-4.930813629936892539e+00 9.331359948154900758e+37 1.011252517889230046e+06
-4.893035157234407961e+00 9.381934067284890850e+37 1.011278888863630011e+06
-4.854383004771079868e+00 9.431458410601240672e+37 1.011305116102110012e+06
-4.814982756506651640e+00 9.479949114161700874e+37 1.011331098554749973e+06
-4.774644165998324752e+00 9.527741678383880929e+37 1.011356946778079960e+06
-4.733493139035999775e+00 9.574901186333600530e+37 1.011382568656950025e+06
-4.691396182926837355e+00 9.621703223112810520e+37 1.011408040828509955e+06
-4.648399403027724475e+00 9.668309514743240811e+37 1.011433333604080020e+06
-4.604458742483984679e+00 9.715027657631779431e+37 1.011458474670759984e+06
-4.559447368374094367e+00 9.762121386160090915e+37 1.011483541852439987e+06
-4.513495952356606722e+00 9.809757184331669476e+37 1.011508475216459949e+06
-4.466501654940657318e+00 9.858250160801100033e+37 1.011533350366489962e+06
-4.418373500055167824e+00 9.907931351441780573e+37 1.011558239801040036e+06
-4.369224546768236905e+00 9.958967743862380746e+37 1.011583118830019957e+06
-4.318974759429693222e+00 1.001172676912870083e+38 1.011608069755219971e+06
-4.267557799059432000e+00 1.006649883373860065e+38 1.011633174237609957e+06
-4.214914718177169561e+00 1.012370354758349908e+38 1.011658516395700048e+06
-4.161095906165428460e+00 1.018354018561390089e+38 1.011684136714839959e+06
-4.106064569787122309e+00 1.024636409338330087e+38 1.011710127504340024e+06
-4.049805898917838931e+00 1.031244711962359925e+38 1.011736577232940006e+06
-3.992285516229458153e+00 1.038214155231120034e+38 1.011763593198489980e+06
-3.933334100292995572e+00 1.045586257038520062e+38 1.011791354265079950e+06
-3.873093312897253782e+00 1.053371974871890065e+38 1.011819902645839960e+06
-3.811600535816978663e+00 1.061603524758840088e+38 1.011849331382369972e+06
-3.748649804736487567e+00 1.070314742084120086e+38 1.011879861649599974e+06
-3.684297888423316181e+00 1.079525646030009954e+38 1.011911592286129948e+06
-3.618651064578443766e+00 1.089238905241209911e+38 1.011944600587210036e+06
-3.551461085677146912e+00 1.099497437557119993e+38 1.011979149112539948e+06
-3.482917329354677349e+00 1.110289591529299911e+38 1.012015276945549995e+06
-3.412958214932586998e+00 1.121631821828479982e+38 1.012053152925690054e+06
-3.341495047090575099e+00 1.133536387620469965e+38 1.012092963298209943e+06
-3.268641924194525927e+00 1.145986701838820059e+38 1.012134774539500009e+06
-3.194215049850754440e+00 1.158994005050389984e+38 1.012178829910440021e+06
-3.118474703456740826e+00 1.172506854627659990e+38 1.012225099704560009e+06
-3.041135853389278054e+00 1.186544928430589917e+38 1.012273879909079988e+06
-2.962449973507318646e+00 1.201045978948409997e+38 1.012325122057550005e+06
-2.882219503400847316e+00 1.216004477453119954e+38 1.012379057961430051e+06
-2.800632007594686002e+00 1.231344316947890060e+38 1.012435648136010044e+06
-2.717603559256531298e+00 1.247046228016109935e+38 1.012495029408290051e+06
-2.633080112107563764e+00 1.263069838978769962e+38 1.012557303320509964e+06
-2.547220302687492222e+00 1.279333773440570013e+38 1.012622400586370029e+06
-2.461821871169377118e+00 1.295470143663390018e+38 1.012688914380509988e+06
-2.385163710161577910e+00 1.310119980489650026e+38 1.012750015573689947e+06
-2.317181306309066713e+00 1.323063174416030013e+38 1.012805330250549945e+06
-2.257082913245540112e+00 1.334425682710709925e+38 1.012855099897040054e+06
-2.203643144457601011e+00 1.344438508738899989e+38 1.012900035560250049e+06
-2.156569887825753540e+00 1.353202155595370003e+38 1.012940130696950015e+06
-2.114962876425124705e+00 1.360881960429310073e+38 1.012975967705819989e+06
-2.078416243137326092e+00 1.367583587552920052e+38 1.013007745117860031e+06
-2.046293822524603456e+00 1.373430546007739917e+38 1.013035904447949957e+06
-2.018071625847369432e+00 1.378532975030669966e+38 1.013060818340779981e+06
-1.993220348027534783e+00 1.382995585890220057e+38 1.013082888526550028e+06
-1.971094317850656807e+00 1.386936941584269998e+38 1.013102642010589945e+06
-1.951056870515458286e+00 1.390474509274960069e+38 1.013120613755660015e+06
-1.932312958932016045e+00 1.393745124201729998e+38 1.013137495739449980e+06
-1.913455660396721214e+00 1.396972650849329974e+38 1.013154546673340024e+06
-1.889087066694628447e+00 1.400942249238560010e+38 1.013176684166599996e+06
-1.840593565197195858e+00 1.408239377085329939e+38 1.013221110321710003e+06
-1.777871222817339003e+00 1.417861209643830081e+38 1.013278895623030025e+06
-1.707148506538942456e+00 1.428548424226130004e+38 1.013344510957280057e+06
-1.623621528560761362e+00 1.440453241563709909e+38 1.013422580873450032e+06
-1.526078887749463320e+00 1.453513517408099947e+38 1.013514240464159986e+06
-1.427184611151460558e+00 1.466297213071089998e+38 1.013607462153139990e+06
-1.326636722253169864e+00 1.478396460867939956e+38 1.013702419136020006e+06
-1.224480715114623308e+00 1.489766247606100094e+38 1.013798822255159961e+06
-1.120854276872705668e+00 1.500350738211270049e+38 1.013896260217049974e+06
