# time luminosity radius
-2.029645761165011209e+01 4.692919706290800047e+35 1.008265169693010044e+06
-1.914128876987524563e+01 4.782071113679089799e+35 1.008265873984660022e+06
-1.853926864428649424e+01 4.831449635531880284e+35 1.008266304590650019e+06
-1.800667746982799144e+01 4.876943010424930364e+35 1.008266747934889980e+06
-1.738870743452571332e+01 4.932711588293140084e+35 1.008267351753690047e+06
-1.668760176534124184e+01 5.000361829918149767e+35 1.008268169873130042e+06
-1.590532123092998518e+01 5.081828552040249653e+35 1.008269276145149954e+06
-1.504475202746834839e+01 5.180785963565099963e+35 1.008270786171959946e+06
-1.411459429906972218e+01 5.301945087979039901e+35 1.008272843564279960e+06
-1.312600970725179650e+01 5.452896114188260046e+35 1.008275709492609953e+06
-1.210330102812440600e+01 5.644381557548289920e+35 1.008279801932279952e+06
-1.110800527515675640e+01 5.887070738646310195e+35 1.008285696141559980e+06
-1.044607649869431043e+01 6.086887919221940210e+35 1.008291168065430014e+06
-9.962828723873826675e+00 6.265711585552410093e+35 1.008296486916629947e+06
-9.589701413227885496e+00 6.421675099940470019e+35 1.008301588948869961e+06
-9.280412859829084482e+00 6.577315179087510181e+35 1.008306895380269969e+06
-9.020753871416673064e+00 6.730382889354119893e+35 1.008312408210069989e+06
-8.920606401959958021e+00 6.793494229333179780e+35 1.008314664996739943e+06
-8.853812267225293908e+00 6.837816544430750088e+35 1.008316266976949992e+06
-8.801429017090413254e+00 6.873422813730079437e+35 1.008317578315619961e+06
-8.746678842435358092e+00 6.912146976098410172e+35 1.008319028993400047e+06
-8.660211261114454828e+00 6.977732169684569948e+35 1.008321548470059992e+06
-8.540426734674838372e+00 7.078175256363900485e+35 1.008325562276149984e+06
-8.452239649421244394e+00 7.158466382218230080e+35 1.008328912232890027e+06
-8.384250771021470428e+00 7.219884201963940547e+35 1.008331776368199964e+06
-8.323971453450212721e+00 7.289285898187160038e+35 1.008334936481519951e+06
-8.322773747611790895e+00 7.288180890744280728e+35 1.008335004682300030e+06
-8.320390312990639359e+00 7.290440042820570030e+35 1.008335152026850032e+06
-8.316929422726389021e+00 7.293546270291809511e+35 1.008335370124479989e+06
-8.314099172908754554e+00 7.297068743319379340e+35 1.008335550310679944e+06
-8.311693342904618476e+00 7.299467616140879772e+35 1.008335703840889968e+06
-8.309557430264248978e+00 7.301258065362230648e+35 1.008335841177050024e+06
-8.309537165660003666e+00 7.300744323762490543e+35 1.008335843536010012e+06
-8.309496839094208553e+00 7.300786056730360431e+35 1.008335847702439991e+06
-8.309416589225293137e+00 7.300869463448319585e+35 1.008335862271760008e+06
-8.309356694517191499e+00 7.300931601959320678e+35 1.008335880889220047e+06
-8.309325004374841228e+00 7.300964391121200425e+35 1.008335892599010025e+06
-8.309297836356563494e+00 7.300992357807849732e+35 1.008335902385510039e+06
-8.309267826967698056e+00 7.301023425205539576e+35 1.008335913022799999e+06
-8.309234155589365400e+00 7.301058269354370411e+35 1.008335924545340007e+06
-8.309190521838900167e+00 7.301103452329799890e+35 1.008335938575929962e+06
-8.309124360865098424e+00 7.301172017018399971e+35 1.008335957316000015e+06
-8.309071396513900254e+00 7.301226972763350202e+35 1.008335970635410049e+06
-8.309024755239079241e+00 7.301275390126069609e+35 1.008335980603339965e+06
-8.308974683197448030e+00 7.301327423567769390e+35 1.008335989590979996e+06
-8.308914077060762793e+00 7.301390447930300736e+35 1.008335998678760021e+06
-8.308831388734688517e+00 7.301476469722860506e+35 1.008336009117190028e+06
-8.308693164130090736e+00 7.301620313469269606e+35 1.008336024130570004e+06
-8.308418097170942929e+00 7.301906625535039748e+35 1.008336052728360053e+06
-8.307870713921147399e+00 7.302476740659460663e+35 1.008336106079460005e+06
-8.306781421255436726e+00 7.291357142574820241e+35 1.008336204762520036e+06
-8.304742364496632945e+00 7.307192744368309864e+35 1.008336366274190019e+06
-8.300995965037145652e+00 7.310675716112420520e+35 1.008336629384440021e+06
-8.296922542278480250e+00 7.315292529114800040e+35 1.008336896445450024e+06
-8.292001994566817302e+00 7.321134376859430234e+35 1.008337211627479992e+06
-8.285732311152969487e+00 7.326867841252459302e+35 1.008337611397329951e+06
-8.277468838386994321e+00 7.335929329211239565e+35 1.008338143304590019e+06
-8.266495879703143146e+00 7.347786501279179759e+35 1.008338865253139986e+06
-8.251941820861247834e+00 7.364906682100209950e+35 1.008339857037390000e+06
-8.232733773220388684e+00 7.389553503152469804e+35 1.008341242413230008e+06
-8.208562573556264397e+00 7.416086158004770062e+35 1.008343129297949956e+06
-8.186489208928833250e+00 7.443327395806919621e+35 1.008345003471559961e+06
-8.169631719705648720e+00 7.460075885334949578e+35 1.008346531761890044e+06
-8.155587908717279788e+00 7.476524521637569818e+35 1.008347881988700014e+06
-8.142455824563512579e+00 7.493921151976700571e+35 1.008349226904239971e+06
-8.130081062117824331e+00 7.510954171388439578e+35 1.008350583882950014e+06
-8.115995318737986963e+00 7.525702342715619411e+35 1.008352267420890043e+06
-8.097275483421981335e+00 7.557672785594810219e+35 1.008354847534450004e+06
-8.080857092470978387e+00 7.573321291780490302e+35 1.008357540524319978e+06
-8.064690085295296740e+00 7.601277274674659275e+35 1.008360762570569990e+06
-8.049721041294105817e+00 7.620083494882800212e+35 1.008363996848520008e+06
-8.036491467893938534e+00 7.632614517761410100e+35 1.008366970498639974e+06
-8.024564238548919093e+00 7.648453665224409671e+35 1.008369734938979964e+06
-8.012904765491839498e+00 7.670648351947290337e+35 1.008372477429460036e+06
-8.001044235235895030e+00 7.688123115728389943e+35 1.008375378073330037e+06
-7.988159426626225468e+00 7.707982524772139921e+35 1.008378516019979957e+06
-7.973941574440686963e+00 7.730982130381089383e+35 1.008381944436860038e+06
-7.958872119044826832e+00 7.749339157569639584e+35 1.008385545753460028e+06
-7.942283022093761247e+00 7.783480927666200523e+35 1.008389597563900054e+06
-7.923728492598456796e+00 7.845013906174499495e+35 1.008394156229960034e+06
-7.902952459953667130e+00 7.972040159729380024e+35 1.008399311885199975e+06
-7.879861903944402002e+00 8.270564160123250176e+35 1.008405181736230035e+06
-7.855106621325830929e+00 9.418564085150339447e+35 1.008411885644990020e+06
-7.831236381287453696e+00 1.170001984814150002e+36 1.008418497862059972e+06
-7.804343933014024515e+00 1.496823347844830132e+36 1.008426166648200015e+06
-7.776558952493360266e+00 2.075891570621539908e+36 1.008434386988430051e+06
-7.748122352502832655e+00 2.778334572782919831e+36 1.008443166906540049e+06
-7.719169664109358564e+00 3.136177315486290104e+36 1.008452448680590023e+06
-7.691076268238248304e+00 3.883341097722250162e+36 1.008461907300270046e+06
-7.663290062948362902e+00 4.230883706638559880e+36 1.008471642931060051e+06
-7.635917601313849445e+00 4.730436047513969972e+36 1.008481669461049954e+06
-7.609580003532755654e+00 5.710432845897760564e+36 1.008491989129189984e+06
-7.584399404920986854e+00 6.048305768803519507e+36 1.008502267013240024e+06
-7.560199799423571676e+00 6.404498904771660266e+36 1.008512551905030035e+06
-7.537020745257905219e+00 6.750301664840090332e+36 1.008522796903279959e+06
-7.514580667309928685e+00 7.089293038252680125e+36 1.008533092967089964e+06
-7.492642517347121611e+00 7.422921904477229789e+36 1.008543521501900046e+06
-7.471112403320148587e+00 7.762392744448090392e+36 1.008554180681569967e+06
-7.450267160282237455e+00 8.173639421958099729e+36 1.008565002796369954e+06
-7.429922085437283386e+00 8.520574908759369559e+36 1.008576008479940007e+06
-7.410033019012189470e+00 8.866204780230380009e+36 1.008587233380910009e+06
-7.390411927081004251e+00 9.212911798539319871e+36 1.008598783405359951e+06
-7.371130370753235184e+00 9.561798676155780461e+36 1.008610602047379944e+06
-7.352145498247409705e+00 9.915532231188310307e+36 1.008622688407549984e+06
-7.333502363384468481e+00 1.027438768574739954e+37 1.008635047444459982e+06
-7.315215227339649573e+00 1.063598297727679998e+37 1.008647703453400056e+06
-7.297988113336032256e+00 1.099369112669560021e+37 1.008660142045220011e+06
-7.281792806097655557e+00 1.133725106123529952e+37 1.008672317179620033e+06
-7.266360816342057660e+00 1.167678432598470079e+37 1.008684372286899947e+06
-7.251394795392116066e+00 1.201143787605410026e+37 1.008696509948399966e+06
-7.236571658148022834e+00 1.236188603426580075e+37 1.008709028235669946e+06
-7.221662844727688935e+00 1.274008458788580059e+37 1.008722127646179986e+06
-7.206659079376549926e+00 1.313639863528970069e+37 1.008735803811770049e+06
-7.191706995537970215e+00 1.355629945315590003e+37 1.008749913033229997e+06
-7.177948788579669781e+00 1.395817227865500025e+37 1.008763281700060004e+06
-7.164927102938236203e+00 1.435709423503620110e+37 1.008776285540899960e+06
-7.152909637625270989e+00 1.474117340351130002e+37 1.008788586788180051e+06
-7.140238523883454036e+00 1.515856691509769961e+37 1.008801889672530000e+06
-7.128538085577019956e+00 1.555825827739389888e+37 1.008814447903809953e+06
-7.116886159710702486e+00 1.596447455027839987e+37 1.008827229102749960e+06
-7.105598796741105616e+00 1.636360073257639975e+37 1.008839861134010018e+06
-7.093762058517313562e+00 1.678696810192729884e+37 1.008853382236149977e+06
-7.082540280156536028e+00 1.718870563010840041e+37 1.008866430141170043e+06
-7.071155763842398301e+00 1.759638333146659967e+37 1.008879900529809995e+06
-7.060242862222366966e+00 1.798268260399629971e+37 1.008893013638140052e+06
-7.049529768337379210e+00 1.835779585039649974e+37 1.008906073000940029e+06
-7.039109599041694310e+00 1.871664235080369962e+37 1.008918938305919990e+06
-7.028834517746872734e+00 1.906362241353309998e+37 1.008931778826229973e+06
-7.018574263303889893e+00 1.940242315521779959e+37 1.008944742525800015e+06
-7.008460151031613350e+00 1.972719774983750062e+37 1.008957651205930044e+06
-6.998568082271958701e+00 2.003426509673240089e+37 1.008970390552580007e+06
-6.988809424212377053e+00 2.030840221225870029e+37 1.008983053847440053e+06
-6.979179066634969786e+00 2.057214866935260030e+37 1.008995631532870000e+06
-6.969626406411407515e+00 2.082759867585890091e+37 1.009008186545319972e+06
-6.960025181077071466e+00 2.108047133781779918e+37 1.009020869935509982e+06
-6.950479558472579811e+00 2.133523663259379932e+37 1.009033543420889997e+06
-6.940968164803052787e+00 2.154010082055709819e+37 1.009046223000510014e+06
-6.931456484453519806e+00 2.177969486314459998e+37 1.009058949620560044e+06
-6.922066102109965868e+00 2.203497083370269828e+37 1.009071555340460036e+06
-6.912683487658796366e+00 2.244418073282580026e+37 1.009084189579179976e+06
-6.903115259177866392e+00 2.267511410960539979e+37 1.009097091286889976e+06
-6.892782405280740932e+00 2.297492469750680059e+37 1.009111040407720022e+06
-6.881795213434088510e+00 2.331236527294279806e+37 1.009125882810030016e+06
-6.870256456808419898e+00 2.372814917808620214e+37 1.009141481800380046e+06
-6.858185798490012530e+00 2.426186302806339835e+37 1.009157801014799974e+06
-6.845744512931560166e+00 2.478076994266960173e+37 1.009174614532700041e+06
-6.833414351574901957e+00 2.557843481185469797e+37 1.009191257406900055e+06
-6.821598723756324034e+00 2.611369714622599912e+37 1.009207188317680033e+06
-6.810333634115522727e+00 2.720921223456869866e+37 1.009222373567980016e+06
-6.799374496891687158e+00 2.732620901382510187e+37 1.009237130491000018e+06
-6.786556524100888055e+00 2.786708057077570084e+37 1.009254362519219983e+06
-6.774086999517749064e+00 2.855853922028930215e+37 1.009271071408670046e+06
-6.759312332316767424e+00 2.931132454217689862e+37 1.009290807819979964e+06
-6.741770976957923267e+00 3.025301554467759787e+37 1.009314144932879950e+06
-6.720969532165327109e+00 3.122289851696479797e+37 1.009341626457980019e+06
-6.697238783650391269e+00 3.239326506062790225e+37 1.009372738900110009e+06
-6.673670678392227273e+00 3.354499546638910172e+37 1.009403324172800058e+06
-6.650673999021819327e+00 3.472157940097340108e+37 1.009432896147149964e+06
-6.628299900730780791e+00 3.589740580219219918e+37 1.009461402786060004e+06
-6.606584060195018537e+00 3.705992225957759965e+37 1.009488825495669967e+06
-6.585135659021034371e+00 3.822459437999450178e+37 1.009515680306709954e+06
-6.563612824153096881e+00 3.940620915169730187e+37 1.009542375173319946e+06
-6.538969736364379060e+00 4.076943169836860159e+37 1.009572683820529957e+06
-6.514421438856516033e+00 4.214178853981480001e+37 1.009602585555869970e+06
-6.489860370107635390e+00 4.352081536045979791e+37 1.009632225319489953e+06
-6.465268823740188964e+00 4.490242182743890233e+37 1.009661620341359987e+06
-6.440627353782474529e+00 4.628405216385899785e+37 1.009690791276979959e+06
-6.415916211240983102e+00 4.766212996766799933e+37 1.009719751510389964e+06
-6.391118023035232909e+00 4.903397518340870333e+37 1.009748513424679986e+06
-6.366252127292682417e+00 5.039561388118860305e+37 1.009777042088050046e+06
-6.341300325293559581e+00 5.174507722152710232e+37 1.009805344152180012e+06
-6.316244792280485854e+00 5.308072170866910384e+37 1.009833427331250045e+06
-6.291067012018174864e+00 5.440181592851580042e+37 1.009861295417599962e+06
-6.265747846213344019e+00 5.570691257584520056e+37 1.009888952511979965e+06
-6.240267926164960954e+00 5.699548583305259863e+37 1.009916405516310013e+06
-6.214607824338600039e+00 5.826654671852749715e+37 1.009943652201769990e+06
-6.188766288425540552e+00 5.951846753646159826e+37 1.009970676204949967e+06
-6.162755334073153790e+00 6.074957169274740304e+37 1.009997448710700031e+06
-6.136556614743312821e+00 6.195971240776940419e+37 1.010023971709180041e+06
-6.110152349036070518e+00 6.314906543959360207e+37 1.010050249964799965e+06
-6.083524554880568758e+00 6.431677472813359925e+37 1.010076276676369947e+06
-6.056655347754713148e+00 6.546254203507350153e+37 1.010102055114979972e+06
-6.029527080092520919e+00 6.658658853390739706e+37 1.010127585127259954e+06
-6.002122541693097446e+00 6.768876140987230456e+37 1.010152864485780010e+06
-5.974428547742718365e+00 6.876916310637689812e+37 1.010177890807989985e+06
-5.946460403909441084e+00 6.982558165388570052e+37 1.010202632820880041e+06
-5.918200106272706762e+00 7.085826929543989756e+37 1.010227090363950003e+06
-5.889630516234319657e+00 7.186680054066209570e+37 1.010251264135009958e+06
-5.860734491019684356e+00 7.285193401187919610e+37 1.010275156439570012e+06
-5.831494899277458899e+00 7.381345663373450449e+37 1.010298763363749953e+06
-5.801894589640141930e+00 7.475169606423910019e+37 1.010322083759170026e+06
-5.771916328914812766e+00 7.566596173270480384e+37 1.010345115217330051e+06
-5.741542696247051936e+00 7.655653066936740100e+37 1.010367851489900029e+06
-5.710755942694959231e+00 7.742425343712519615e+37 1.010390294568700017e+06
-5.679537980271561537e+00 7.826879832643369662e+37 1.010412438969190000e+06
-5.647870838831295259e+00 7.909011877050899648e+37 1.010434283486569999e+06
-5.615736513558658771e+00 7.988857347811269575e+37 1.010455825882200035e+06
-5.583116197623894550e+00 8.066438379463510036e+37 1.010477064997210051e+06
-5.549989819955953863e+00 8.141800309700909687e+37 1.010497999572330038e+06
-5.516335680360498372e+00 8.215006482290690242e+37 1.010518629085229943e+06
-5.482130054086155724e+00 8.286115137834190186e+37 1.010538954625159968e+06
-5.447346758279309142e+00 8.355222525633320470e+37 1.010558979202830000e+06
-5.411980603021220304e+00 8.422361439894530372e+37 1.010578694400949986e+06
-5.376029643404763192e+00 8.487571900123099684e+37 1.010598091484099976e+06
-5.339464367651089560e+00 8.550973141559430546e+37 1.010617178816120024e+06
-5.302251806977437809e+00 8.612656640400570506e+37 1.010635965054510045e+06
-5.264354321792779956e+00 8.672770098924639378e+37 1.010654462106980034e+06
-5.225750041769060772e+00 8.731418317331980430e+37 1.010672674518730026e+06
-5.186457454976334702e+00 8.788689349275080463e+37 1.010690591184759978e+06
-5.146427623178169597e+00 8.844742053544160776e+37 1.010708233900230029e+06
-5.105606285324029159e+00 8.899770059793199350e+37 1.010725625868799980e+06
-5.064017867567599751e+00 8.953873348089779761e+37 1.010742760812110035e+06
-5.021622086482238956e+00 9.007317312622150167e+37 1.010759660446560010e+06
-4.978350936020433437e+00 9.060242767493519461e+37 1.010776360012260033e+06
-4.934253382190945558e+00 9.112829808020519761e+37 1.010792852030940005e+06
-4.889243077159335371e+00 9.165293752409430528e+37 1.010809183947619982e+06
-4.843333686862024479e+00 9.217922933603239724e+37 1.010825368083080044e+06
-4.796466224979667459e+00 9.270856148402639807e+37 1.010841446432710043e+06
-4.748643850594817195e+00 9.324434578098289163e+37 1.010857443419810035e+06
-4.699799340443860274e+00 9.378864549625949278e+37 1.010873409838909982e+06
-4.649960268434369937e+00 9.434384706617520476e+37 1.010889381558610010e+06
-4.599052812605805229e+00 9.491336551514019320e+37 1.010905397386580007e+06
-4.547084040001209360e+00 9.549945269010569526e+37 1.010921501664109994e+06
-4.494041147176176310e+00 9.610467603426850443e+37 1.010937743606499978e+06
-4.439890187088167295e+00 9.673221200588349450e+37 1.010954181961899973e+06
-4.384623072066460736e+00 9.738452414291619579e+37 1.010970870237839990e+06
-4.328305276947503444e+00 9.806373270414110530e+37 1.010987844440549961e+06
-4.270961759735655505e+00 9.877177874037780395e+37 1.011005152956309961e+06
-4.212617937017057557e+00 9.951049126928480661e+37 1.011022846632029978e+06
-4.153238909078936558e+00 1.002823591741440042e+38 1.011040994917460019e+06
-4.092674615108990110e+00 1.010910814163510073e+38 1.011059704649450025e+06
-4.030993414569820743e+00 1.019382880242050027e+38 1.011079013776149950e+06
-3.967994911727146246e+00 1.028275398638679987e+38 1.011099049361080048e+06
-3.903789360316295642e+00 1.037600024021480008e+38 1.011119834574199980e+06
-3.838604433658474591e+00 1.047336173130699975e+38 1.011141351117140031e+06
-3.771565899347478990e+00 1.057602581885199921e+38 1.011163952790930052e+06
-3.703882036177674308e+00 1.068264657439820054e+38 1.011187274293749942e+06
-3.632952847212436609e+00 1.079659063452539933e+38 1.011212297643229947e+06
-3.562711211881833151e+00 1.091294574548869986e+38 1.011237644704320002e+06
-3.490746967174345627e+00 1.103412354426399926e+38 1.011264240675490000e+06
-3.414545531792100519e+00 1.116437423204349930e+38 1.011293089767529978e+06
-3.337754814674553927e+00 1.129873901912220049e+38 1.011322825625739992e+06
-3.261790067903348245e+00 1.143404212041369958e+38 1.011352899219300016e+06
-3.183902126882458106e+00 1.157384278657460045e+38 1.011384410247639986e+06
-3.101600764333852567e+00 1.172226483049180008e+38 1.011418403013459989e+06
-3.012232461122039240e+00 1.188358150181549950e+38 1.011456043499969994e+06
-2.921839331414957996e+00 1.204898152485610068e+38 1.011494768139680033e+06
-2.834475988238409627e+00 1.221002990311270012e+38 1.011532773739970056e+06
-2.747046441567363217e+00 1.236981981084240048e+38 1.011571338407190051e+06
-2.657157771107449662e+00 1.253231347321900058e+38 1.011611435427080025e+06
-2.562442496426228900e+00 1.270066159022670065e+38 1.011654036714160000e+06
-2.460293609539803583e+00 1.287816810629759917e+38 1.011700214732439956e+06
-2.347576460888376459e+00 1.306835500863119943e+38 1.011751213378180051e+06
-2.232699221371149179e+00 1.325867098736529911e+38 1.011803012058670050e+06
-2.123661227335105650e+00 1.343579323149049930e+38 1.011851909008980030e+06
-2.016491562244482338e+00 1.360238353817579997e+38 1.011899584624220035e+06
-1.908553671935806051e+00 1.376214190754540018e+38 1.011947000874890015e+06
-1.797542082051222678e+00 1.391752495647099957e+38 1.011994902912750025e+06
-1.681115788160241209e+00 1.406999449164859986e+38 1.012043933581109974e+06
-1.556632975472894032e+00 1.422040863963440003e+38 1.012094679472179967e+06
-1.420898111930000596e+00 1.436888370866380006e+38 1.012147647396879969e+06
-1.269669277338834945e+00 1.451458449812809966e+38 1.012203259205479990e+06
