# time luminosity radius
-2.354420532636868302e+01 5.435334831496379661e+35 1.008241620383940055e+06
-1.820327830093083321e+01 6.015317780778380276e+35 1.008236777729609981e+06
-1.764370642800167843e+01 6.029624171172809945e+35 1.008434102877679979e+06
-1.738289860186159785e+01 6.029772314981749737e+35 1.008436721427890006e+06
-1.703953205473226262e+01 6.023949569823690202e+35 1.008438977585720015e+06
-1.670755648043632391e+01 6.020549342079780116e+35 1.008440115570239956e+06
-1.636929034172953834e+01 6.023851408896919855e+35 1.008440452147379983e+06
-1.601165672386741790e+01 6.037133064908439907e+35 1.008440173185550026e+06
-1.562350137043267750e+01 6.063433072206819706e+35 1.008439377262420021e+06
-1.518773751869775879e+01 6.107033680710989822e+35 1.008438127480110037e+06
-1.468748103674352024e+01 6.173785299650559880e+35 1.008436473436409957e+06
-1.409558588316212990e+01 6.273522232716240250e+35 1.008434502615610021e+06
-1.348766592013362242e+01 6.397651128896819817e+35 1.008432677825369989e+06
-1.290248006684123538e+01 6.537648327687349762e+35 1.008431273295360035e+06
-1.231996824693305825e+01 6.699142445428490286e+35 1.008430390494900057e+06
-1.173176117142702424e+01 6.888445777319519548e+35 1.008430196898030001e+06
-1.112850578663346823e+01 7.116725246526720237e+35 1.008430959232670022e+06
-1.049462227254207392e+01 7.406835587197619892e+35 1.008433239755320014e+06
-9.813764816448383499e+00 7.803818458753560527e+35 1.008438529075360042e+06
-9.208588870696075901e+00 8.288539734052870360e+35 1.008447567350769998e+06
-8.757807378012330446e+00 8.783933005174380317e+35 1.008461393194040051e+06
-8.580576116312840895e+00 9.013716577572489713e+35 1.008468395746659953e+06
-8.471951545014235307e+00 9.170440423483620279e+35 1.008473646427699947e+06
-8.463192976179016114e+00 9.183237269253349538e+35 1.008474072881610016e+06
-8.445763424196229607e+00 9.210304424680429771e+35 1.008474967491529998e+06
-8.411078615750739118e+00 9.263519453118229901e+35 1.008476878755399957e+06
-8.346195559091938776e+00 9.372569658732110226e+35 1.008481103977859952e+06
-8.286804143294830283e+00 9.480924306151880695e+35 1.008485680154229980e+06
-8.234848772969598940e+00 9.584103396671820083e+35 1.008490525371619966e+06
-8.195704221100641007e+00 9.665620574929959791e+35 1.008494796458619996e+06
-8.161114906311013328e+00 9.742661689354669316e+35 1.008499250844100025e+06
-8.129119528222872759e+00 9.818502643876130356e+35 1.008504260626579984e+06
-8.102542365685621917e+00 9.883664514339550552e+35 1.008509212069559959e+06
-8.080815261467250821e+00 9.941051089931360530e+35 1.008513902742290054e+06
-8.062432682745566126e+00 9.990703092025410691e+35 1.008518381445750012e+06
-8.045405206235045625e+00 1.004123245991500072e+36 1.008523026241249987e+06
-8.035869165276380954e+00 1.007474916383889979e+36 1.008525739012639970e+06
-8.017604337857846986e+00 1.013085761012520063e+36 1.008531827289970010e+06
-8.000474881591799203e+00 1.019722363344130057e+36 1.008538442952799960e+06
-7.984340678164699057e+00 1.029965741857300047e+36 1.008546477698220056e+06
-7.968456473508922500e+00 1.080048761608500022e+36 1.008556169334460050e+06
-7.959789995455139433e+00 1.194020079943420033e+36 1.008561312561459956e+06
-7.951256029879004927e+00 1.454528183867119976e+36 1.008566262796440045e+06
-7.938950127414500457e+00 2.127287993416810022e+36 1.008573360191570013e+06
-7.927769985909435491e+00 4.836763239602159735e+36 1.008579918433450046e+06
-7.917387583716845256e+00 4.753566714867069831e+36 1.008585818789749988e+06
-7.906360995910290512e+00 4.907891252509099968e+36 1.008591922177189961e+06
-7.895198972158141260e+00 5.257022144058950031e+36 1.008597966504130047e+06
-7.883565237782022450e+00 5.514936455035590002e+36 1.008604111835550051e+06
-7.871114141944417497e+00 5.785275245085540390e+36 1.008610528818130028e+06
-7.857047847478497715e+00 6.101838395696099678e+36 1.008617614735680050e+06
-7.841457353409168718e+00 6.575413226409189709e+36 1.008625327846299973e+06
-7.823985923087093397e+00 6.935347292672170203e+36 1.008633776287970017e+06
-7.804039698909946310e+00 7.294046123227999533e+36 1.008643227761570015e+06
-7.780929732927688747e+00 7.805262088469399531e+36 1.008654097377169994e+06
-7.753409313245356316e+00 8.171777075068440424e+36 1.008666888160079950e+06
-7.724901133836283407e+00 8.441137674461110221e+36 1.008680023013259983e+06
-7.695966991172099370e+00 8.638966876083450381e+36 1.008693360221070005e+06
-7.666591667815737310e+00 8.968169902612460425e+36 1.008707236533369985e+06
-7.637230451996401825e+00 9.049130928804129430e+36 1.008721300002590055e+06
-7.608176111589273205e+00 9.077356359307499523e+36 1.008735458930250024e+06
-7.580113942538446281e+00 9.071841685258190533e+36 1.008749394956939970e+06
-7.553351962742453907e+00 9.046160098344510346e+36 1.008762945114210015e+06
-7.527840832421134110e+00 9.011345284143199732e+36 1.008776110596640036e+06
-7.503409285656744032e+00 8.977169856962499785e+36 1.008788954872570001e+06
-7.479822180902374384e+00 8.945710743530520218e+36 1.008801573037769995e+06
-7.456956303569313604e+00 8.929370535869109522e+36 1.008814017978720018e+06
-7.434687866314561688e+00 8.874353994052290117e+36 1.008826328168399981e+06
-7.412793227366819337e+00 8.869656206684690412e+36 1.008838611505339970e+06
-7.391230193770752521e+00 8.981248205379369424e+36 1.008850905230959994e+06
-7.369779429363916279e+00 9.195889714490650300e+36 1.008863318415840040e+06
-7.348456306395746651e+00 9.575740660125100073e+36 1.008875877683370025e+06
-7.327268040739909338e+00 9.760510832088020049e+36 1.008888511682730052e+06
-7.306311073019969626e+00 1.028369821061759958e+37 1.008901185051920009e+06
-7.285298770012559544e+00 1.061474424589849979e+37 1.008914037225479959e+06
-7.263349299740184506e+00 1.083256301811620033e+37 1.008927627442409983e+06
-7.241462220608809730e+00 1.136777230571730009e+37 1.008941329707660014e+06
-7.219632097990142938e+00 1.144050448340780047e+37 1.008955119256870006e+06
-7.195615581828860741e+00 1.203877052889040050e+37 1.008970439184590010e+06
-7.170680670015826763e+00 1.242979491627719994e+37 1.008986486875019968e+06
-7.145032490676385351e+00 1.287376412896110099e+37 1.009003098171420046e+06
-7.118421781467986875e+00 1.332919101824949934e+37 1.009020430344030028e+06
-7.089914177970058518e+00 1.383662106281919937e+37 1.009039097901080037e+06
-7.060893182704603532e+00 1.437106919298619943e+37 1.009058200689960038e+06
-7.032275729807224707e+00 1.491411505292929944e+37 1.009077096876590047e+06
-6.999016785357525805e+00 1.555828568580860016e+37 1.009099127355720033e+06
-6.962946903125157405e+00 1.627698937291860039e+37 1.009123083445859957e+06
-6.924339774163854599e+00 1.706928309211530059e+37 1.009148776639080024e+06
-6.881943720263734576e+00 1.797071870128800095e+37 1.009177041978919995e+06
-6.834896731990738772e+00 1.901225787874629908e+37 1.009208433599789976e+06
-6.785249754882897832e+00 2.015943647669619924e+37 1.009241527374619967e+06
-6.731855450419971021e+00 2.144392115156809783e+37 1.009277040558569948e+06
-6.674635760270575702e+00 2.286973981579460027e+37 1.009314925963790040e+06
-6.611988035059766844e+00 2.447467600626129788e+37 1.009356099413180025e+06
-6.545282532150849875e+00 2.621240246480659880e+37 1.009399407955529983e+06
-6.471272497837162518e+00 2.814472187825629843e+37 1.009446594317730051e+06
-6.390761680847390380e+00 3.022375476415630019e+37 1.009496569479390047e+06
-6.302767355630749080e+00 3.243685752988009820e+37 1.009549217889409978e+06
-6.206517401304154191e+00 3.475808677827839765e+37 1.009604082626370015e+06
-6.099802726319467183e+00 3.718237957118520003e+37 1.009661226025650045e+06
-5.990719637335132575e+00 3.949669701438459932e+37 1.009715529028219986e+06
-5.884672996475273976e+00 4.158359323635520182e+37 1.009764383700230042e+06
-5.774278531418531202e+00 4.357037997818999784e+37 1.009811091895299964e+06
-5.637274293086193211e+00 4.575777366105540006e+37 1.009863094458770007e+06
-5.510861207349989854e+00 4.760279771150750338e+37 1.009906269001179957e+06
-5.396727628954977263e+00 4.912663123342090378e+37 1.009941729021120002e+06
-5.292529109189672454e+00 5.040902906785810165e+37 1.009971480152609991e+06
-5.197079685981407238e+00 5.150710998479729793e+37 1.009996769086709945e+06
-5.106580666418267356e+00 5.248628710852220414e+37 1.010019159322710009e+06
-4.998186524453558377e+00 5.357109066918990281e+37 1.010043991455320036e+06
-4.869382294902607100e+00 5.479446548474519829e+37 1.010071183309089975e+06
-4.755651509000927035e+00 5.587400710987429990e+37 1.010093762331480044e+06
-4.654658285133336904e+00 5.681432483297609666e+37 1.010112939398479997e+06
-4.564536857270468317e+00 5.764958937148419786e+37 1.010129541876589996e+06
-4.483118729902344057e+00 5.840203477282180236e+37 1.010144181004830054e+06
-4.407403964116383577e+00 5.910075412931149913e+37 1.010157568892040057e+06
-4.325451405247804360e+00 5.985160516748379625e+37 1.010171841431010049e+06
-4.199189687928992498e+00 6.098718336488780122e+37 1.010193441616149968e+06
-4.088883079823972366e+00 6.206500923902330225e+37 1.010212185062950011e+06
-3.991533664881899313e+00 6.303186701595529654e+37 1.010228814442440053e+06
-3.905168279147801513e+00 6.390609676925820209e+37 1.010243666783630033e+06
-3.828288308073751978e+00 6.469933212147519677e+37 1.010257003716730047e+06
-3.758879656750650611e+00 6.542566173572880399e+37 1.010269134853860014e+06
-3.693334232457345934e+00 6.611794893999699774e+37 1.010280677735290024e+06
-3.619607608876322047e+00 6.689406202290309889e+37 1.010293745086729992e+06
-3.499786028529342730e+00 6.813790630934809590e+37 1.010315150115219993e+06
-3.394718739676136465e+00 6.931845143705250263e+37 1.010333972518039984e+06
-3.301124525418345002e+00 7.037917237293570424e+37 1.010350926378819975e+06
-3.217885345889044402e+00 7.133250354382959812e+37 1.010366127955890028e+06
-3.143611306793900440e+00 7.218877654219409915e+37 1.010379770743070054e+06
-3.076950930113525828e+00 7.296114439517050361e+37 1.010392059338510036e+06
-3.015518644550866156e+00 7.367351194681190238e+37 1.010403409787880024e+06
-2.954455738044089230e+00 7.437633860391599605e+37 1.010414691949269967e+06
-2.869340237700271246e+00 7.531858256115500418e+37 1.010430345439550001e+06
-2.756427801637073571e+00 7.656509944360860056e+37 1.010450839423610014e+06
-2.655989923778179218e+00 7.771636266925009544e+37 1.010468799643589999e+06
-2.565890614849195117e+00 7.873382014477250180e+37 1.010484749260399956e+06
-2.485115319870601525e+00 7.963480841328660291e+37 1.010498875953390030e+06
-2.412499230207686196e+00 8.043408131788280232e+37 1.010511408046980039e+06
-2.346983101845580677e+00 8.114520208030319699e+37 1.010522557566549978e+06
-2.286332494941234472e+00 8.179173842910759549e+37 1.010532727193639963e+06
-2.226359688321281283e+00 8.241439682709829579e+37 1.010542613134399988e+06
-2.150339394279399130e+00 8.315786715224820433e+37 1.010554809198449948e+06
-2.040924703490418324e+00 8.416607599583330297e+37 1.010571545575010008e+06
-1.873599629134332645e+00 8.557467793019359185e+37 1.010595007104979944e+06
-1.692123878220627375e+00 8.703531021411680118e+37 1.010617863730240031e+06
-1.491280857686433592e+00 8.846564714698619620e+37 1.010639930100849946e+06
-1.268358138867370144e+00 8.982599692183700916e+37 1.010660212316030054e+06
-1.017356959862809163e+00 9.105514402313660888e+37 1.010677450477420003e+06
-7.272145510632981313e-01 9.207343061338880290e+37 1.010689829828849994e+06
-3.834613663002528483e-01 9.273596435395860560e+37 1.010694121373530012e+06
0.000000000000000000e+00 9.289942671919279226e+37 1.010686978164689965e+06
3.961276632589942892e-01 9.252030531032200686e+37 1.010668146575959981e+06
8.238167897279708995e-01 9.149240754092330453e+37 1.010636295927759958e+06
1.304756763746809156e+00 8.971658243189420903e+37 1.010588863286289969e+06
1.870379962954757502e+00 8.704105982132200222e+37 1.010522105430369964e+06
2.572146820525631483e+00 8.322442874823749630e+37 1.010430745829059975e+06
3.267423320769012207e+00 7.934573795453439893e+37 1.010337661783020012e+06
3.975313215979440429e+00 7.534931197302309944e+37 1.010244459493739996e+06
4.738564927685729344e+00 7.119672532534930145e+37 1.010149248477549991e+06
5.587906028061297548e+00 6.699828363034709883e+37 1.010052659968030057e+06
6.470035075540181424e+00 6.319931395777509589e+37 1.009963395139700035e+06
7.362630451382756291e+00 5.992209170448829750e+37 1.009884068632730050e+06
8.329182251998645370e+00 5.694166981026599673e+37 1.009809620307520032e+06
9.415960173545499856e+00 5.422758188589569886e+37 1.009738385224850033e+06
1.062309906690552452e+01 5.186096483916169917e+37 1.009671486245529959e+06
1.178862536681390338e+01 5.010251006786479901e+37 1.009615898710169946e+06
1.284429016177364247e+01 4.883434887270119910e+37 1.009570215774449985e+06
1.380386334153536154e+01 4.783888903872040092e+37 1.009532173465159955e+06
1.380387199636697915e+01 4.797332738863879704e+37 1.010154197370150010e+06
1.380387522057299066e+01 4.803450400259329859e+37 1.010171155524639995e+06
1.380388163674160751e+01 4.800725511468559528e+37 1.010167077500610030e+06
1.380389210720477422e+01 4.799291904325160142e+37 1.010165124521219986e+06
1.380390422725849930e+01 4.799457142335609788e+37 1.010166094657939975e+06
1.380391855159086845e+01 4.799513886575470353e+37 1.010167310429599951e+06
1.380393557108163805e+01 4.799547789951220126e+37 1.010168616172190057e+06
1.380395596666403435e+01 4.799591920395280382e+37 1.010170101422620006e+06
1.380398041241733154e+01 4.799644833297189668e+37 1.010171766468159971e+06
1.380401021648776805e+01 4.799709069498830199e+37 1.010173650815409957e+06
1.380404676922353246e+01 4.799787519159649886e+37 1.010175753324519959e+06
1.380409239809250721e+01 4.799884901131920246e+37 1.010178041326839942e+06
1.380415154676211387e+01 4.800010202159739812e+37 1.010180568262799992e+06
1.380421441384442005e+01 4.800142236468269754e+37 1.010182818592329975e+06
1.380427990178486652e+01 4.800278609883000362e+37 1.010184752599959960e+06
1.380434940078248474e+01 4.800422038840180142e+37 1.010186446004459984e+06
1.380442317656070372e+01 4.800572868807069782e+37 1.010187892936169985e+06
1.380450375459167844e+01 4.800735936344949783e+37 1.010189149938200018e+06
1.380459299630001624e+01 4.800914491782549536e+37 1.010190229666620027e+06
1.380469475236986909e+01 4.801115497099399961e+37 1.010191160356450011e+06
1.380481429311385000e+01 4.801348120669449644e+37 1.010191959937380045e+06
1.380496028552352072e+01 4.801627120853729666e+37 1.010192609944839962e+06
1.380515917347565846e+01 4.801998134865489531e+37 1.010193154702689964e+06
1.380545778368377796e+01 4.802535645436059711e+37 1.010193567385719973e+06
1.380603599067126197e+01 4.803510717551489996e+37 1.010193873721480020e+06
1.380718662257731921e+01 4.805233769405370041e+37 1.010194207632299978e+06
1.380947638006819034e+01 4.808034920925399953e+37 1.010195138048719964e+06
1.381403299747671554e+01 4.811990109377690221e+37 1.010198024302790058e+06
1.382310066611807997e+01 4.815662659152920238e+37 1.010206142221580027e+06
1.384114532671537745e+01 4.811863491593599939e+37 1.010225449010379962e+06
1.387705420130350831e+01 4.785388162973660300e+37 1.010262134557020036e+06
1.394851286173343397e+01 4.729883563170880301e+37 1.010315604439790011e+06
1.409071559598942258e+01 4.664458956195550332e+37 1.010372533061200054e+06
1.437369903715898545e+01 4.610360788914300034e+37 1.010407949114170042e+06
1.493683608508490579e+01 4.559426476475570083e+37 1.010391623680750025e+06
1.569082714920932631e+01 4.512134531210819901e+37 1.010332504648879985e+06
1.636054585799229244e+01 4.481486612009280006e+37 1.010275245492430055e+06
1.695811670483180933e+01 4.453244672914070212e+37 1.010225130398049951e+06
1.749307103793853457e+01 4.426633795418689806e+37 1.010182057652120013e+06
1.797280378032792214e+01 4.401673707963349959e+37 1.010145021421590005e+06
1.840453871278896258e+01 4.378524302855040402e+37 1.010112960503570037e+06
1.879486299605650856e+01 4.357088257578379863e+37 1.010084961664719973e+06
1.914964507464082999e+01 4.337212512187899803e+37 1.010060281611170038e+06
1.947397996642484941e+01 4.318731250134279817e+37 1.010038325616459944e+06
1.977177643293634901e+01 4.301523041302939580e+37 1.010018651893320028e+06
2.004639152675645164e+01 4.285464060296349531e+37 1.010000901764819981e+06
2.030066412583346391e+01 4.270438677268589880e+37 1.009984788873309968e+06
2.053610937014764204e+01 4.256425194401920271e+37 1.009970133580449969e+06
2.075871341926449531e+01 4.242931720193199787e+37 1.009956496572079952e+06
2.097770145603772107e+01 4.229202419427139935e+37 1.009943257350830012e+06
2.125433943607731635e+01 4.209203419998490027e+37 1.009926622517280048e+06
2.154179355268479412e+01 4.188948058554689831e+37 1.009909561521989992e+06
2.186226245309353544e+01 4.165760269740319972e+37 1.009890869025380001e+06
2.226522214561828150e+01 4.135189730202939850e+37 1.009867835192890023e+06
2.273415420927904051e+01 4.100999688507839812e+37 1.009841852934289956e+06
2.315668494515466591e+01 4.074715083894660089e+37 1.009819411002330016e+06
2.354124320558821637e+01 4.051679103338850207e+37 1.009799713410579949e+06
2.389354122206077591e+01 4.030711967014549884e+37 1.009782173749080044e+06
2.421808672809765994e+01 4.011351626407120054e+37 1.009766381848269957e+06
2.451861901583924919e+01 3.993346499310519773e+37 1.009752037037490052e+06
2.479807225961212680e+01 3.976538313734730036e+37 1.009738919710960006e+06
2.505906486931144173e+01 3.960775545749980178e+37 1.009726848241730011e+06
2.530882967607158207e+01 3.945451916035970015e+37 1.009715441133419983e+06
2.556399098106066958e+01 3.929095394021499980e+37 1.009703884350029984e+06
2.601352207592117338e+01 3.892982888375620094e+37 1.009683394226950011e+06
2.631959824411114823e+01 3.876411973905990130e+37 1.009669871494309977e+06
2.674541009675431269e+01 3.845647787758859944e+37 1.009651372482829960e+06
2.727028199374672113e+01 3.808386007419490079e+37 1.009629049988809973e+06
2.774377150231612177e+01 3.780331006467009769e+37 1.009609694552610046e+06
2.817486334378645552e+01 3.755815702880969981e+37 1.009592656071600039e+06
2.857000618259280600e+01 3.733555123532229811e+37 1.009577430009020027e+06
2.893448784920383332e+01 3.713044545029760115e+37 1.009563664939180017e+06
2.927277591503207077e+01 3.693993545559160155e+37 1.009551102095179958e+06
2.958841817904158233e+01 3.676209040676390117e+37 1.009539551557790022e+06
2.988449993896665546e+01 3.659511480071419925e+37 1.009528857510940055e+06
3.016932862302110152e+01 3.643238445810040053e+37 1.009518683527779998e+06
3.046130889619144000e+01 3.625870996900460090e+37 1.009508321958280052e+06
3.096751088117616746e+01 3.588608468156439787e+37 1.009490193477810011e+06
3.130988761032404000e+01 3.572267914898079942e+37 1.009478351093049976e+06
3.180765949340184306e+01 3.539071371184039846e+37 1.009461359205189976e+06
3.249494748279266787e+01 3.493831467843520227e+37 1.009438403226400027e+06
3.315022312082783174e+01 3.459088909299900134e+37 1.009417564815200050e+06
3.373992698023084813e+01 3.430381332719509981e+37 1.009399564162460039e+06
3.427399331766446267e+01 3.404716731225629858e+37 1.009383712595619960e+06
3.476061466538612876e+01 3.381339973612300229e+37 1.009369562456020038e+06
3.520721976596996683e+01 3.359837028398330183e+37 1.009356788757059956e+06
3.562008004994004295e+01 3.339912357805789997e+37 1.009345146773769986e+06
3.600472370242005127e+01 3.321306206942350149e+37 1.009334437305800035e+06
3.636537997973482561e+01 3.303838419232320097e+37 1.009324511680879979e+06
3.670718416277213692e+01 3.287215821794989873e+37 1.009315202837320045e+06
3.704042607472274540e+01 3.270743360485380098e+37 1.009306203964299988e+06
3.739801454997086694e+01 3.251919651980270054e+37 1.009296559255040018e+06
3.810961561571366474e+01 3.205283196085669849e+37 1.009277146436159965e+06
3.855690272601441393e+01 3.189705123002489897e+37 1.009265606246129959e+06
3.923057682742637553e+01 3.151564758127460198e+37 1.009248370341529953e+06
